X[s],Decomposition sensor: Ch1 (Dev4),X[s],Decomposition sensor: Ch2 (Dev4),X[s],Decomposition sensor: Ch3 (Dev4),X[s],Decomposition sensor: Ch4 (Dev4),X[s],EMG sensor 9: Ch9 (Dev4)->filter (FilterSlidingRMS107),X[s],Feedback Trace: Synth0
0,-1.98E-06,0,2.89E-06,0,2.24E-06,0,-4.74E-06,0,0,0,0
5.00E-05,-2.30E-06,5.00E-05,2.89E-06,5.00E-05,2.24E-06,5.00E-05,-4.74E-06,5.00E-05,0,0.001,0
0.0001,-2.14E-06,0.0001,2.08E-06,0.0001,2.89E-06,0.0001,-4.74E-06,0.0001,0,0.002,0
0.00015,-1.98E-06,0.00015,2.24E-06,0.00015,3.21E-06,0.00015,-4.90E-06,0.00015,0,0.003,0
0.0002,-1.98E-06,0.0002,1.92E-06,0.0002,3.38E-06,0.0002,-5.06E-06,0.0002,0,0.004,0
0.00025,-1.49E-06,0.00025,1.27E-06,0.00025,3.86E-06,0.00025,-4.90E-06,0.00025,0,0.005,0
0.0003,-1.65E-06,0.0003,7.81E-07,0.0003,4.03E-06,0.0003,-5.22E-06,0.0003,0,0.006,0
0.00035,-8.42E-07,0.00035,-3.03E-08,0.00035,5.00E-06,0.00035,-5.38E-06,0.00035,0,0.007,0
10.2074,-2.92E-05,10.2074,2.43E-05,10.2074,3.76E-05,10.2074,-3.48E-05,10.2074,4.70E-05,,0
10.20745,-2.81E-05,10.20745,2.58E-05,10.20745,3.92E-05,10.20745,-3.96E-05,10.20745,4.70E-05,,0
10.2075,-2.65E-05,10.2075,2.79E-05,10.2075,4.00E-05,10.2075,-4.38E-05,10.2075,4.70E-05,,0
10.20755,-2.55E-05,10.20755,3.06E-05,10.20755,4.09E-05,10.20755,-4.81E-05,10.20755,4.70E-05,,0
10.2076,-2.44E-05,10.2076,3.26E-05,10.2076,4.07E-05,10.2076,-5.24E-05,10.2076,4.71E-05,,0
10.20765,-2.21E-05,10.20765,3.58E-05,10.20765,4.04E-05,10.20765,-5.67E-05,10.20765,4.71E-05,,0
10.2077,-2.08E-05,10.2077,3.89E-05,10.2077,3.96E-05,10.2077,-6.09E-05,10.2077,4.71E-05,,0
10.20775,-1.87E-05,10.20775,4.20E-05,10.20775,3.79E-05,10.20775,-6.49E-05,10.20775,4.71E-05,,0
10.2078,-1.59E-05,10.2078,4.57E-05,10.2078,3.62E-05,10.2078,-6.92E-05,10.2078,4.71E-05,,0
10.20785,-1.38E-05,10.20785,4.96E-05,10.20785,3.31E-05,10.20785,-7.29E-05,10.20785,4.71E-05,,0
10.2079,-1.09E-05,10.2079,5.35E-05,10.2079,2.95E-05,10.2079,-7.60E-05,10.2079,4.71E-05,,0
10.20795,-8.31E-06,10.20795,5.81E-05,10.20795,2.53E-05,10.20795,-7.92E-05,10.20795,4.71E-05,,0
10.208,-5.22E-06,10.208,6.24E-05,10.208,2.06E-05,10.208,-8.21E-05,10.208,4.71E-05,,0
10.20805,-1.98E-06,10.20805,6.68E-05,10.20805,1.57E-05,10.20805,-8.49E-05,10.20805,4.71E-05,,0
10.2081,1.43E-06,10.2081,7.12E-05,10.2081,9.38E-06,10.2081,-8.73E-05,10.2081,4.71E-05,,0
10.20815,5.32E-06,10.20815,7.54E-05,10.20815,3.21E-06,10.20815,-8.99E-05,10.20815,4.71E-05,,0
10.2082,9.22E-06,10.2082,8.00E-05,10.2082,-3.11E-06,10.2082,-9.15E-05,10.2082,4.71E-05,,0
10.20825,1.33E-05,10.20825,8.42E-05,10.20825,-1.03E-05,10.20825,-9.32E-05,10.20825,4.71E-05,,0
10.2083,1.81E-05,10.2083,8.87E-05,10.2083,-1.76E-05,10.2083,-9.51E-05,10.2083,4.71E-05,,0
10.20835,2.25E-05,10.20835,9.28E-05,10.20835,-2.49E-05,10.20835,-9.58E-05,10.20835,4.71E-05,,0
10.2084,2.69E-05,10.2084,9.62E-05,10.2084,-3.23E-05,10.2084,-9.75E-05,10.2084,4.71E-05,,0
10.20845,3.18E-05,10.20845,9.98E-05,10.20845,-3.95E-05,10.20845,-9.82E-05,10.20845,4.71E-05,,0
10.2085,3.68E-05,10.2085,0.000103165,10.2085,-4.66E-05,10.2085,-9.88E-05,10.2085,4.71E-05,,0
10.9101,-5.54E-05,10.9101,5.27E-05,10.9101,2.11E-05,10.9101,-2.32E-05,10.9101,5.51E-05,,0
10.91015,-5.52E-05,10.91015,5.43E-05,10.91015,2.06E-05,10.91015,-2.39E-05,10.91015,5.51E-05,,0
10.9102,-5.47E-05,10.9102,5.55E-05,10.9102,1.99E-05,10.9102,-2.52E-05,10.9102,5.51E-05,,0
10.91025,-5.37E-05,10.91025,5.69E-05,10.91025,1.86E-05,10.91025,-2.58E-05,10.91025,5.51E-05,,0
10.9103,-5.36E-05,10.9103,5.74E-05,10.9103,1.75E-05,10.9103,-2.71E-05,10.9103,5.51E-05,,0
10.91035,-5.26E-05,10.91035,5.85E-05,10.91035,1.64E-05,10.91035,-2.75E-05,10.91035,5.51E-05,,0
10.9104,-5.18E-05,10.9104,5.92E-05,10.9104,1.57E-05,10.9104,-2.81E-05,10.9104,5.51E-05,,0
10.91045,-5.10E-05,10.91045,6.02E-05,10.91045,1.49E-05,10.91045,-2.92E-05,10.91045,5.51E-05,,0
10.9105,-4.98E-05,10.9105,6.07E-05,10.9105,1.36E-05,10.9105,-3.00E-05,10.9105,5.51E-05,,0
10.91055,-4.84E-05,10.91055,6.15E-05,10.91055,1.18E-05,10.91055,-3.05E-05,10.91055,5.51E-05,,0
10.9106,-4.76E-05,10.9106,6.16E-05,10.9106,1.15E-05,10.9106,-3.18E-05,10.9106,5.51E-05,,0
10.91065,-4.63E-05,10.91065,6.16E-05,10.91065,1.02E-05,10.91065,-3.31E-05,10.91065,5.51E-05,,0
10.9107,-4.53E-05,10.9107,6.24E-05,10.9107,9.22E-06,10.9107,-3.41E-05,10.9107,5.51E-05,,0
10.91075,-4.37E-05,10.91075,6.21E-05,10.91075,8.24E-06,10.91075,-3.52E-05,10.91075,5.51E-05,,0
10.9108,-4.16E-05,10.9108,6.18E-05,10.9108,7.27E-06,10.9108,-3.61E-05,10.9108,5.51E-05,,0
10.91085,-4.03E-05,10.91085,6.23E-05,10.91085,6.95E-06,10.91085,-3.75E-05,10.91085,5.51E-05,,0
10.9109,-3.88E-05,10.9109,6.23E-05,10.9109,5.97E-06,10.9109,-3.83E-05,10.9109,5.51E-05,,0
10.91095,-3.73E-05,10.91095,6.24E-05,10.91095,5.81E-06,10.91095,-3.99E-05,10.91095,5.51E-05,,0
10.911,-3.57E-05,10.911,6.26E-05,10.911,5.16E-06,10.911,-4.09E-05,10.911,5.51E-05,,0
10.91105,-3.41E-05,10.91105,6.26E-05,10.91105,4.51E-06,10.91105,-4.29E-05,10.91105,5.51E-05,,0
10.9111,-3.25E-05,10.9111,6.23E-05,10.9111,4.35E-06,10.9111,-4.42E-05,10.9111,5.51E-05,,0
10.91115,-3.07E-05,10.91115,6.29E-05,10.91115,3.86E-06,10.91115,-4.56E-05,10.91115,5.51E-05,,0
10.9112,-2.94E-05,10.9112,6.34E-05,10.9112,3.54E-06,10.9112,-4.79E-05,10.9112,5.51E-05,,0
10.91125,-2.75E-05,10.91125,6.41E-05,10.91125,3.54E-06,10.91125,-4.87E-05,10.91125,5.51E-05,,0
10.9113,-2.62E-05,10.9113,6.44E-05,10.9113,3.05E-06,10.9113,-5.11E-05,10.9113,5.51E-05,,0
10.91135,-2.47E-05,10.91135,6.49E-05,10.91135,2.73E-06,10.91135,-5.29E-05,10.91135,5.51E-05,,0
10.9114,-2.32E-05,10.9114,6.50E-05,10.9114,1.92E-06,10.9114,-5.44E-05,10.9114,5.51E-05,,0
10.91145,-2.16E-05,10.91145,6.60E-05,10.91145,1.59E-06,10.91145,-5.67E-05,10.91145,5.51E-05,,0
10.9115,-1.97E-05,10.9115,6.63E-05,10.9115,1.59E-06,10.9115,-5.76E-05,10.9115,5.51E-05,,0
10.91155,-1.82E-05,10.91155,6.78E-05,10.91155,1.43E-06,10.91155,-5.93E-05,10.91155,5.51E-05,,0
10.9116,-1.67E-05,10.9116,6.83E-05,10.9116,6.19E-07,10.9116,-6.10E-05,10.9116,5.51E-05,,0
10.91165,-1.54E-05,10.91165,6.96E-05,10.91165,1.32E-07,10.91165,-6.27E-05,10.91165,5.51E-05,,0
10.9117,-1.45E-05,10.9117,7.02E-05,10.9117,-1.93E-07,10.9117,-6.44E-05,10.9117,5.51E-05,,0
10.91175,-1.33E-05,10.91175,7.12E-05,10.91175,-5.17E-07,10.91175,-6.57E-05,10.91175,5.51E-05,,0
10.9118,-1.20E-05,10.9118,7.17E-05,10.9118,-1.00E-06,10.9118,-6.74E-05,10.9118,5.51E-05,,0
10.91185,-1.12E-05,10.91185,7.20E-05,10.91185,-1.00E-06,10.91185,-6.88E-05,10.91185,5.51E-05,,0
10.9119,-9.77E-06,10.9119,7.25E-05,10.9119,-1.17E-06,10.9119,-7.06E-05,10.9119,5.51E-05,,0
10.91195,-8.95E-06,10.91195,7.31E-05,10.91195,-8.42E-07,10.91195,-7.11E-05,10.91195,5.51E-05,,0
10.912,-8.31E-06,10.912,7.33E-05,10.912,-1.00E-06,10.912,-7.22E-05,10.912,5.51E-05,,0
10.91205,-7.66E-06,10.91205,7.43E-05,10.91205,-8.42E-07,10.91205,-7.24E-05,10.91205,5.51E-05,,0
10.9121,-7.66E-06,10.9121,7.40E-05,10.9121,-6.79E-07,10.9121,-7.30E-05,10.9121,5.51E-05,,0
10.91215,-7.49E-06,10.91215,7.44E-05,10.91215,-5.17E-07,10.91215,-7.30E-05,10.91215,5.51E-05,,0
10.9122,-7.17E-06,10.9122,7.48E-05,10.9122,-1.93E-07,10.9122,-7.35E-05,10.9122,5.51E-05,,0
10.91225,-7.01E-06,10.91225,7.43E-05,10.91225,-3.55E-07,10.91225,-7.34E-05,10.91225,5.51E-05,,0
10.9123,-6.85E-06,10.9123,7.38E-05,10.9123,2.94E-07,10.9123,-7.37E-05,10.9123,5.51E-05,,0
10.91235,-7.01E-06,10.91235,7.31E-05,10.91235,7.81E-07,10.91235,-7.34E-05,10.91235,5.51E-05,,0
10.9124,-7.49E-06,10.9124,7.30E-05,10.9124,1.75E-06,10.9124,-7.32E-05,10.9124,5.51E-05,,0
10.91245,-7.66E-06,10.91245,7.23E-05,10.91245,2.08E-06,10.91245,-7.27E-05,10.91245,5.51E-05,,0
10.9125,-8.47E-06,10.9125,7.12E-05,10.9125,2.57E-06,10.9125,-7.16E-05,10.9125,5.51E-05,,0
10.91255,-8.47E-06,10.91255,7.07E-05,10.91255,3.05E-06,10.91255,-7.11E-05,10.91255,5.51E-05,,0
10.9126,-9.12E-06,10.9126,6.84E-05,10.9126,4.35E-06,10.9126,-7.06E-05,10.9126,5.51E-05,,0
10.91265,-9.60E-06,10.91265,6.71E-05,10.91265,5.49E-06,10.91265,-6.92E-05,10.91265,5.51E-05,,0
10.9127,-9.77E-06,10.9127,6.54E-05,10.9127,5.97E-06,10.9127,-6.82E-05,10.9127,5.51E-05,,0
10.91275,-1.07E-05,10.91275,6.36E-05,10.91275,6.95E-06,10.91275,-6.69E-05,10.91275,5.51E-05,,0
10.9128,-1.06E-05,10.9128,6.15E-05,10.9128,8.24E-06,10.9128,-6.57E-05,10.9128,5.51E-05,,0
10.91285,-1.14E-05,10.91285,5.95E-05,10.91285,9.38E-06,10.91285,-6.43E-05,10.91285,5.51E-05,,0
10.9129,-1.16E-05,10.9129,5.77E-05,10.9129,1.00E-05,10.9129,-6.30E-05,10.9129,5.51E-05,,0
10.91295,-1.16E-05,10.91295,5.55E-05,10.91295,1.15E-05,10.91295,-6.14E-05,10.91295,5.51E-05,,0
10.913,-1.19E-05,10.913,5.34E-05,10.913,1.30E-05,10.913,-5.99E-05,10.913,5.50E-05,,0
10.91305,-1.22E-05,10.91305,5.04E-05,10.91305,1.42E-05,10.91305,-5.86E-05,10.91305,5.50E-05,,0
10.9131,-1.27E-05,10.9131,4.82E-05,10.9131,1.54E-05,10.9131,-5.63E-05,10.9131,5.50E-05,,0
10.91315,-1.33E-05,10.91315,4.56E-05,10.91315,1.70E-05,10.91315,-5.49E-05,10.91315,5.50E-05,,0
10.9132,-1.38E-05,10.9132,4.35E-05,10.9132,1.78E-05,10.9132,-5.34E-05,10.9132,5.50E-05,,0
10.91325,-1.41E-05,10.91325,4.12E-05,10.91325,1.91E-05,10.91325,-5.18E-05,10.91325,5.50E-05,,0
10.9133,-1.45E-05,10.9133,3.94E-05,10.9133,2.06E-05,10.9133,-5.03E-05,10.9133,5.50E-05,,0
10.91335,-1.50E-05,10.91335,3.71E-05,10.91335,2.15E-05,10.91335,-4.89E-05,10.91335,5.50E-05,,0
10.9134,-1.59E-05,10.9134,3.55E-05,10.9134,2.30E-05,10.9134,-4.68E-05,10.9134,5.50E-05,,0
10.91345,-1.63E-05,10.91345,3.37E-05,10.91345,2.37E-05,10.91345,-4.56E-05,10.91345,5.50E-05,,0
10.9135,-1.67E-05,10.9135,3.26E-05,10.9135,2.45E-05,10.9135,-4.47E-05,10.9135,5.50E-05,,0
10.91355,-1.77E-05,10.91355,3.10E-05,10.91355,2.48E-05,10.91355,-4.27E-05,10.91355,5.51E-05,,0
10.9136,-1.84E-05,10.9136,3.03E-05,10.9136,2.59E-05,10.9136,-4.11E-05,10.9136,5.51E-05,,0
10.91365,-1.95E-05,10.91365,2.93E-05,10.91365,2.59E-05,10.91365,-3.95E-05,10.91365,5.51E-05,,0
10.9137,-1.98E-05,10.9137,2.84E-05,10.9137,2.67E-05,10.9137,-3.83E-05,10.9137,5.51E-05,,0
10.91375,-2.08E-05,10.91375,2.77E-05,10.91375,2.69E-05,10.91375,-3.72E-05,10.91375,5.51E-05,,0
10.9138,-2.16E-05,10.9138,2.74E-05,10.9138,2.74E-05,10.9138,-3.59E-05,10.9138,5.51E-05,,0
10.91385,-2.26E-05,10.91385,2.63E-05,10.91385,2.69E-05,10.91385,-3.48E-05,10.91385,5.51E-05,,0
10.9139,-2.27E-05,10.9139,2.61E-05,10.9139,2.66E-05,10.9139,-3.35E-05,10.9139,5.50E-05,,0
10.91395,-2.31E-05,10.91395,2.59E-05,10.91395,2.66E-05,10.91395,-3.22E-05,10.91395,5.50E-05,,0
10.914,-2.37E-05,10.914,2.56E-05,10.914,2.61E-05,10.914,-3.04E-05,10.914,5.50E-05,,0
10.91405,-2.39E-05,10.91405,2.54E-05,10.91405,2.58E-05,10.91405,-2.92E-05,10.91405,5.50E-05,,0
10.9141,-2.40E-05,10.9141,2.50E-05,10.9141,2.54E-05,10.9141,-2.78E-05,10.9141,5.50E-05,,0
10.91415,-2.42E-05,10.91415,2.48E-05,10.91415,2.40E-05,10.91415,-2.66E-05,10.91415,5.50E-05,,0
10.9142,-2.42E-05,10.9142,2.46E-05,10.9142,2.30E-05,10.9142,-2.49E-05,10.9142,5.50E-05,,0
10.91425,-2.40E-05,10.91425,2.41E-05,10.91425,2.24E-05,10.91425,-2.37E-05,10.91425,5.50E-05,,0
10.9143,-2.40E-05,10.9143,2.37E-05,10.9143,2.12E-05,10.9143,-2.27E-05,10.9143,5.50E-05,,0
10.91435,-2.40E-05,10.91435,2.33E-05,10.91435,2.01E-05,10.91435,-2.13E-05,10.91435,5.50E-05,,0
10.9144,-2.37E-05,10.9144,2.32E-05,10.9144,1.90E-05,10.9144,-2.06E-05,10.9144,5.50E-05,,0
10.91445,-2.39E-05,10.91445,2.30E-05,10.91445,1.77E-05,10.91445,-1.89E-05,10.91445,5.50E-05,,0
10.9145,-2.37E-05,10.9145,2.32E-05,10.9145,1.67E-05,10.9145,-1.79E-05,10.9145,5.50E-05,,0
10.91455,-2.34E-05,10.91455,2.28E-05,10.91455,1.52E-05,10.91455,-1.69E-05,10.91455,5.50E-05,,0
10.9146,-2.26E-05,10.9146,2.25E-05,10.9146,1.41E-05,10.9146,-1.58E-05,10.9146,5.50E-05,,0
10.91465,-2.26E-05,10.91465,2.20E-05,10.91465,1.23E-05,10.91465,-1.54E-05,10.91465,5.50E-05,,0
10.9147,-2.16E-05,10.9147,2.12E-05,10.9147,1.13E-05,10.9147,-1.41E-05,10.9147,5.50E-05,,0
10.91475,-2.11E-05,10.91475,2.06E-05,10.91475,9.54E-06,10.91475,-1.27E-05,10.91475,5.50E-05,,0
10.9148,-2.05E-05,10.9148,2.01E-05,10.9148,8.57E-06,10.9148,-1.20E-05,10.9148,5.50E-05,,0
10.91485,-2.00E-05,10.91485,1.96E-05,10.91485,7.11E-06,10.91485,-1.12E-05,10.91485,5.50E-05,,0
10.9149,-1.87E-05,10.9149,1.90E-05,10.9149,5.81E-06,10.9149,-1.09E-05,10.9149,5.50E-05,,0
10.91495,-1.72E-05,10.91495,1.81E-05,10.91495,4.35E-06,10.91495,-9.60E-06,10.91495,5.50E-05,,0
10.915,-1.61E-05,10.915,1.72E-05,10.915,2.73E-06,10.915,-8.47E-06,10.915,5.50E-05,,0
10.91505,-1.50E-05,10.91505,1.65E-05,10.91505,9.43E-07,10.91505,-7.98E-06,10.91505,5.50E-05,,0
10.9151,-1.33E-05,10.9151,1.62E-05,10.9151,-3.03E-08,10.9151,-7.82E-06,10.9151,5.50E-05,,0
10.91515,-1.11E-05,10.91515,1.52E-05,10.91515,-1.65E-06,10.91515,-7.82E-06,10.91515,5.50E-05,,0
10.9152,-9.60E-06,10.9152,1.47E-05,10.9152,-3.60E-06,10.9152,-7.01E-06,10.9152,5.50E-05,,0
10.91525,-7.17E-06,10.91525,1.42E-05,10.91525,-5.22E-06,10.91525,-7.01E-06,10.91525,5.50E-05,,0
10.9153,-5.22E-06,10.9153,1.41E-05,10.9153,-7.17E-06,10.9153,-7.17E-06,10.9153,5.50E-05,,0
10.91535,-2.95E-06,10.91535,1.33E-05,10.91535,-9.12E-06,10.91535,-7.33E-06,10.91535,5.50E-05,,0
10.9154,-5.17E-07,10.9154,1.36E-05,10.9154,-1.12E-05,10.9154,-7.49E-06,10.9154,5.50E-05,,0
10.91545,1.75E-06,10.91545,1.36E-05,10.91545,-1.32E-05,10.91545,-7.49E-06,10.91545,5.50E-05,,0
10.9155,4.19E-06,10.9155,1.41E-05,10.9155,-1.59E-05,10.9155,-8.31E-06,10.9155,5.50E-05,,0
10.91555,7.43E-06,10.91555,1.42E-05,10.91555,-1.82E-05,10.91555,-9.60E-06,10.91555,5.50E-05,,0
10.9156,9.38E-06,10.9156,1.46E-05,10.9156,-2.08E-05,10.9156,-1.01E-05,10.9156,5.50E-05,,0
10.91565,1.20E-05,10.91565,1.57E-05,10.91565,-2.29E-05,10.91565,-1.07E-05,10.91565,5.50E-05,,0
10.9157,1.44E-05,10.9157,1.60E-05,10.9157,-2.55E-05,10.9157,-1.17E-05,10.9157,5.50E-05,,0
10.91575,1.70E-05,10.91575,1.78E-05,10.91575,-2.81E-05,10.91575,-1.40E-05,10.91575,5.50E-05,,0
10.9158,1.91E-05,10.9158,1.93E-05,10.9158,-2.97E-05,10.9158,-1.50E-05,10.9158,5.50E-05,,0
10.91585,2.14E-05,10.91585,2.06E-05,10.91585,-3.22E-05,10.91585,-1.67E-05,10.91585,5.50E-05,,0
10.9159,2.37E-05,10.9159,2.22E-05,10.9159,-3.39E-05,10.9159,-1.89E-05,10.9159,5.50E-05,,0
10.91595,2.56E-05,10.91595,2.35E-05,10.91595,-3.52E-05,10.91595,-2.13E-05,10.91595,5.50E-05,,0
10.916,2.72E-05,10.916,2.58E-05,10.916,-3.65E-05,10.916,-2.34E-05,10.916,5.50E-05,,0
10.91605,2.84E-05,10.91605,2.72E-05,10.91605,-3.69E-05,10.91605,-2.60E-05,10.91605,5.50E-05,,0
10.9161,3.00E-05,10.9161,2.95E-05,10.9161,-3.70E-05,10.9161,-2.87E-05,10.9161,5.50E-05,,0
10.91615,3.10E-05,10.91615,3.16E-05,10.91615,-3.72E-05,10.91615,-3.23E-05,10.91615,5.50E-05,,0
10.9162,3.18E-05,10.9162,3.37E-05,10.9162,-3.65E-05,10.9162,-3.62E-05,10.9162,5.50E-05,,0
10.91625,3.26E-05,10.91625,3.52E-05,10.91625,-3.56E-05,10.91625,-3.99E-05,10.91625,5.50E-05,,0
10.9163,3.29E-05,10.9163,3.66E-05,10.9163,-3.31E-05,10.9163,-4.38E-05,10.9163,5.50E-05,,0
10.91635,3.36E-05,10.91635,3.91E-05,10.91635,-3.07E-05,10.91635,-4.84E-05,10.91635,5.50E-05,,0
10.9164,3.37E-05,10.9164,4.07E-05,10.9164,-2.75E-05,10.9164,-5.34E-05,10.9164,5.50E-05,,0
10.91645,3.42E-05,10.91645,4.20E-05,10.91645,-2.36E-05,10.91645,-5.80E-05,10.91645,5.50E-05,,0
10.9165,3.42E-05,10.9165,4.36E-05,10.9165,-1.92E-05,10.9165,-6.41E-05,10.9165,5.50E-05,,0
10.91655,3.37E-05,10.91655,4.48E-05,10.91655,-1.43E-05,10.91655,-6.98E-05,10.91655,5.50E-05,,0
10.9166,3.34E-05,10.9166,4.52E-05,10.9166,-9.12E-06,10.9166,-7.58E-05,10.9166,5.50E-05,,0
10.91665,3.32E-05,10.91665,4.64E-05,10.91665,-3.44E-06,10.91665,-8.16E-05,10.91665,5.50E-05,,0
10.9167,3.23E-05,10.9167,4.65E-05,10.9167,2.57E-06,10.9167,-8.67E-05,10.9167,5.50E-05,,0
10.91675,3.24E-05,10.91675,4.70E-05,10.91675,8.57E-06,10.91675,-9.27E-05,10.91675,5.50E-05,,0
10.9168,3.11E-05,10.9168,4.72E-05,10.9168,1.57E-05,10.9168,-9.85E-05,10.9168,5.50E-05,,0
10.91685,3.10E-05,10.91685,4.69E-05,10.91685,2.11E-05,10.91685,-0.000103712,10.91685,5.51E-05,,0
10.9169,3.01E-05,10.9169,4.65E-05,10.9169,2.76E-05,10.9169,-0.000109067,10.9169,5.51E-05,,0
10.91695,2.97E-05,10.91695,4.64E-05,10.91695,3.32E-05,10.91695,-0.000113285,10.91695,5.51E-05,,0
10.917,2.89E-05,10.917,4.59E-05,10.917,3.86E-05,10.917,-0.000117666,10.917,5.51E-05,,0
10.91705,2.85E-05,10.91705,4.56E-05,10.91705,4.36E-05,10.91705,-0.000120749,10.91705,5.51E-05,,0
10.9171,2.76E-05,10.9171,4.46E-05,10.9171,4.82E-05,10.9171,-0.00012367,10.9171,5.51E-05,,0
10.91715,2.67E-05,10.91715,4.31E-05,10.91715,5.29E-05,10.91715,-0.000125941,10.91715,5.51E-05,,0
10.9172,2.58E-05,10.9172,4.15E-05,10.9172,5.61E-05,10.9172,-0.000127564,10.9172,5.51E-05,,0
10.91725,2.50E-05,10.91725,4.02E-05,10.91725,5.95E-05,10.91725,-0.000127726,10.91725,5.51E-05,,0
10.9173,2.43E-05,10.9173,3.86E-05,10.9173,6.24E-05,10.9173,-0.000128051,10.9173,5.51E-05,,0
10.91735,2.28E-05,10.91735,3.75E-05,10.91735,6.37E-05,10.91735,-0.000127239,10.91735,5.51E-05,,0
10.9174,2.14E-05,10.9174,3.55E-05,10.9174,6.54E-05,10.9174,-0.000125941,10.9174,5.51E-05,,0
10.91745,2.03E-05,10.91745,3.36E-05,10.91745,6.60E-05,10.91745,-0.000123507,10.91745,5.51E-05,,0
10.9175,1.90E-05,10.9175,3.18E-05,10.9175,6.68E-05,10.9175,-0.000120587,10.9175,5.51E-05,,0
10.91755,1.67E-05,10.91755,3.01E-05,10.91755,6.65E-05,10.91755,-0.000116368,10.91755,5.51E-05,,0
10.9176,1.49E-05,10.9176,2.84E-05,10.9176,6.57E-05,10.9176,-0.000113123,10.9176,5.51E-05,,0
10.91765,1.33E-05,10.91765,2.69E-05,10.91765,6.49E-05,10.91765,-0.000107606,10.91765,5.51E-05,,0
10.9177,1.13E-05,10.9177,2.51E-05,10.9177,6.31E-05,10.9177,-0.000103388,10.9177,5.51E-05,,0
10.91775,9.71E-06,10.91775,2.27E-05,10.91775,6.07E-05,10.91775,-9.66E-05,10.91775,5.51E-05,,0
10.9178,7.11E-06,10.9178,2.11E-05,10.9178,5.87E-05,10.9178,-9.06E-05,10.9178,5.51E-05,,0
10.91785,5.32E-06,10.91785,1.91E-05,10.91785,5.56E-05,10.91785,-8.42E-05,10.91785,5.51E-05,,0
10.9179,3.05E-06,10.9179,1.73E-05,10.9179,5.29E-05,10.9179,-7.71E-05,10.9179,5.51E-05,,0
10.91795,1.43E-06,10.91795,1.54E-05,10.91795,4.99E-05,10.91795,-7.03E-05,10.91795,5.51E-05,,0
10.918,-8.42E-07,10.918,1.34E-05,10.918,4.69E-05,10.918,-6.28E-05,10.918,5.51E-05,,0
10.91805,-2.46E-06,10.91805,1.10E-05,10.91805,4.38E-05,10.91805,-5.60E-05,10.91805,5.51E-05,,0
10.9181,-4.57E-06,10.9181,9.22E-06,10.9181,4.04E-05,10.9181,-4.85E-05,10.9181,5.51E-05,,0
10.91815,-6.68E-06,10.91815,7.27E-06,10.91815,3.68E-05,10.91815,-4.16E-05,10.91815,5.51E-05,,0
10.9182,-7.66E-06,10.9182,5.65E-06,10.9182,3.36E-05,10.9182,-3.49E-05,10.9182,5.51E-05,,0
10.91825,-9.60E-06,10.91825,4.35E-06,10.91825,3.00E-05,10.91825,-2.83E-05,10.91825,5.51E-05,,0
10.9183,-1.12E-05,10.9183,1.92E-06,10.9183,2.67E-05,10.9183,-2.14E-05,10.9183,5.51E-05,,0
10.91835,-1.20E-05,10.91835,-1.93E-07,10.91835,2.35E-05,10.91835,-1.45E-05,10.91835,5.51E-05,,0
10.9184,-1.32E-05,10.9184,-1.00E-06,10.9184,2.01E-05,10.9184,-7.98E-06,10.9184,5.51E-05,,0
10.91845,-1.37E-05,10.91845,-3.60E-06,10.91845,1.78E-05,10.91845,-2.46E-06,10.91845,5.51E-05,,0
10.9185,-1.50E-05,10.9185,-5.22E-06,10.9185,1.42E-05,10.9185,3.70E-06,10.9185,5.51E-05,,0
10.91855,-1.53E-05,10.91855,-6.85E-06,10.91855,1.08E-05,10.91855,9.06E-06,10.91855,5.51E-05,,0
10.9186,-1.53E-05,10.9186,-9.12E-06,10.9186,7.76E-06,10.9186,1.39E-05,10.9186,5.51E-05,,0
10.91865,-1.51E-05,10.91865,-1.09E-05,10.91865,4.19E-06,10.91865,1.90E-05,10.91865,5.51E-05,,0
10.9187,-1.46E-05,10.9187,-1.30E-05,10.9187,9.43E-07,10.9187,2.45E-05,10.9187,5.51E-05,,0
10.91875,-1.38E-05,10.91875,-1.48E-05,10.91875,-2.14E-06,10.91875,2.87E-05,10.91875,5.51E-05,,0
10.9188,-1.25E-05,10.9188,-1.67E-05,10.9188,-5.38E-06,10.9188,3.29E-05,10.9188,5.51E-05,,0
10.91885,-1.07E-05,10.91885,-1.89E-05,10.91885,-9.12E-06,10.91885,3.75E-05,10.91885,5.51E-05,,0
10.9189,-9.12E-06,10.9189,-2.10E-05,10.9189,-1.25E-05,10.9189,4.07E-05,10.9189,5.51E-05,,0
10.91895,-6.03E-06,10.91895,-2.29E-05,10.91895,-1.61E-05,10.91895,4.41E-05,10.91895,5.51E-05,,0
10.919,-3.28E-06,10.919,-2.52E-05,10.919,-2.00E-05,10.919,4.75E-05,10.919,5.51E-05,,0
10.91905,-1.93E-07,10.91905,-2.73E-05,10.91905,-2.34E-05,10.91905,5.08E-05,10.91905,5.51E-05,,0
10.9191,2.89E-06,10.9191,-2.91E-05,10.9191,-2.73E-05,10.9191,5.34E-05,10.9191,5.51E-05,,0
10.91915,6.30E-06,10.91915,-3.20E-05,10.91915,-3.13E-05,10.91915,5.64E-05,10.91915,5.51E-05,,0
10.9192,1.07E-05,10.9192,-3.41E-05,10.9192,-3.52E-05,10.9192,5.92E-05,10.9192,5.51E-05,,0
10.91925,1.46E-05,10.91925,-3.67E-05,10.91925,-3.95E-05,10.91925,6.15E-05,10.91925,5.51E-05,,0
10.9193,1.86E-05,10.9193,-3.95E-05,10.9193,-4.29E-05,10.9193,6.36E-05,10.9193,5.51E-05,,0
10.91935,2.28E-05,10.91935,-4.16E-05,10.91935,-4.68E-05,10.91935,6.55E-05,10.91935,5.51E-05,,0
10.9194,2.66E-05,10.9194,-4.40E-05,10.9194,-5.07E-05,10.9194,6.73E-05,10.9194,5.51E-05,,0
10.91945,3.05E-05,10.91945,-4.64E-05,10.91945,-5.41E-05,10.91945,6.94E-05,10.91945,5.51E-05,,0
10.9195,3.50E-05,10.9195,-4.89E-05,10.9195,-5.76E-05,10.9195,7.14E-05,10.9195,5.51E-05,,0
10.91955,3.86E-05,10.91955,-5.11E-05,10.91955,-6.09E-05,10.91955,7.27E-05,10.91955,5.51E-05,,0
10.9196,4.22E-05,10.9196,-5.33E-05,10.9196,-6.38E-05,10.9196,7.49E-05,10.9196,5.51E-05,,0
10.91965,4.57E-05,10.91965,-5.55E-05,10.91965,-6.72E-05,10.91965,7.61E-05,10.91965,5.51E-05,,0
10.9197,4.90E-05,10.9197,-5.75E-05,10.9197,-6.96E-05,10.9197,7.77E-05,10.9197,5.51E-05,,0
10.91975,5.21E-05,10.91975,-5.99E-05,10.91975,-7.24E-05,10.91975,7.88E-05,10.91975,5.51E-05,,0
10.9198,5.53E-05,10.9198,-6.15E-05,10.9198,-7.47E-05,10.9198,8.09E-05,10.9198,5.51E-05,,0
10.91985,5.77E-05,10.91985,-6.27E-05,10.91985,-7.71E-05,10.91985,8.17E-05,10.91985,5.51E-05,,0
10.9199,6.05E-05,10.9199,-6.44E-05,10.9199,-7.89E-05,10.9199,8.26E-05,10.9199,5.51E-05,,0
10.91995,6.20E-05,10.91995,-6.59E-05,10.91995,-8.07E-05,10.91995,8.40E-05,10.91995,5.51E-05,,0
10.92,6.39E-05,10.92,-6.72E-05,10.92,-8.20E-05,10.92,8.47E-05,10.92,5.51E-05,,0
10.92005,6.55E-05,10.92005,-6.85E-05,10.92005,-8.31E-05,10.92005,8.56E-05,10.92005,5.51E-05,,0
10.9201,6.71E-05,10.9201,-6.92E-05,10.9201,-8.44E-05,10.9201,8.60E-05,10.9201,5.51E-05,,0
10.92015,6.84E-05,10.92015,-7.01E-05,10.92015,-8.47E-05,10.92015,8.66E-05,10.92015,5.51E-05,,0
10.9202,6.91E-05,10.9202,-7.04E-05,10.9202,-8.60E-05,10.9202,8.74E-05,10.9202,5.51E-05,,0
10.92025,6.96E-05,10.92025,-7.04E-05,10.92025,-8.64E-05,10.92025,8.81E-05,10.92025,5.51E-05,,0
10.9203,6.97E-05,10.9203,-7.13E-05,10.9203,-8.62E-05,10.9203,8.81E-05,10.9203,5.51E-05,,0
10.92035,7.01E-05,10.92035,-7.19E-05,10.92035,-8.64E-05,10.92035,8.81E-05,10.92035,5.51E-05,,0
10.9204,6.99E-05,10.9204,-7.19E-05,10.9204,-8.62E-05,10.9204,8.82E-05,10.9204,5.51E-05,,0
10.92045,6.99E-05,10.92045,-7.22E-05,10.92045,-8.60E-05,10.92045,8.89E-05,10.92045,5.51E-05,,0
10.9205,6.89E-05,10.9205,-7.21E-05,10.9205,-8.52E-05,10.9205,8.90E-05,10.9205,5.51E-05,,0
10.92055,6.84E-05,10.92055,-7.17E-05,10.92055,-8.41E-05,10.92055,8.92E-05,10.92055,5.51E-05,,0
10.9206,6.76E-05,10.9206,-7.13E-05,10.9206,-8.36E-05,10.9206,8.90E-05,10.9206,5.51E-05,,0
10.92065,6.67E-05,10.92065,-7.09E-05,10.92065,-8.28E-05,10.92065,8.94E-05,10.92065,5.51E-05,,0
10.9207,6.55E-05,10.9207,-7.08E-05,10.9207,-8.10E-05,10.9207,8.92E-05,10.9207,5.51E-05,,0
10.92075,6.39E-05,10.92075,-7.03E-05,10.92075,-7.94E-05,10.92075,8.95E-05,10.92075,5.51E-05,,0
10.9208,6.24E-05,10.9208,-7.01E-05,10.9208,-7.82E-05,10.9208,9.00E-05,10.9208,5.51E-05,,0
10.92085,6.13E-05,10.92085,-6.95E-05,10.92085,-7.71E-05,10.92085,8.90E-05,10.92085,5.51E-05,,0
10.9209,5.95E-05,10.9209,-6.95E-05,10.9209,-7.56E-05,10.9209,8.92E-05,10.9209,5.51E-05,,0
10.92095,5.84E-05,10.92095,-6.90E-05,10.92095,-7.37E-05,10.92095,8.86E-05,10.92095,5.50E-05,,0
10.921,5.61E-05,10.921,-6.90E-05,10.921,-7.24E-05,10.921,8.82E-05,10.921,5.50E-05,,0
10.92105,5.47E-05,10.92105,-6.88E-05,10.92105,-7.11E-05,10.92105,8.79E-05,10.92105,5.50E-05,,0
10.9211,5.27E-05,10.9211,-6.82E-05,10.9211,-6.92E-05,10.9211,8.79E-05,10.9211,5.50E-05,,0
10.92115,5.03E-05,10.92115,-6.80E-05,10.92115,-6.74E-05,10.92115,8.79E-05,10.92115,5.50E-05,,0
10.9212,4.80E-05,10.9212,-6.79E-05,10.9212,-6.54E-05,10.9212,8.71E-05,10.9212,5.50E-05,,0
10.92125,4.62E-05,10.92125,-6.75E-05,10.92125,-6.40E-05,10.92125,8.71E-05,10.92125,5.50E-05,,0
10.9213,4.43E-05,10.9213,-6.72E-05,10.9213,-6.15E-05,10.9213,8.66E-05,10.9213,5.50E-05,,0
10.92135,4.22E-05,10.92135,-6.70E-05,10.92135,-5.96E-05,10.92135,8.63E-05,10.92135,5.50E-05,,0
10.9214,3.97E-05,10.9214,-6.67E-05,10.9214,-5.71E-05,10.9214,8.55E-05,10.9214,5.50E-05,,0
10.92145,3.78E-05,10.92145,-6.62E-05,10.92145,-5.54E-05,10.92145,8.45E-05,10.92145,5.50E-05,,0
10.9215,3.60E-05,10.9215,-6.57E-05,10.9215,-5.34E-05,10.9215,8.37E-05,10.9215,5.50E-05,,0
10.92155,3.42E-05,10.92155,-6.54E-05,10.92155,-5.11E-05,10.92155,8.19E-05,10.92155,5.49E-05,,0
10.9216,3.23E-05,10.9216,-6.51E-05,10.9216,-4.85E-05,10.9216,8.11E-05,10.9216,5.49E-05,,0
10.92165,3.08E-05,10.92165,-6.40E-05,10.92165,-4.61E-05,10.92165,7.98E-05,10.92165,5.49E-05,,0
10.9217,2.90E-05,10.9217,-6.35E-05,10.9217,-4.35E-05,10.9217,7.80E-05,10.9217,5.49E-05,,0
10.92175,2.69E-05,10.92175,-6.20E-05,10.92175,-4.11E-05,10.92175,7.61E-05,10.92175,5.49E-05,,0
10.9218,2.56E-05,10.9218,-6.14E-05,10.9218,-3.82E-05,10.9218,7.38E-05,10.9218,5.49E-05,,0
10.92185,2.38E-05,10.92185,-6.01E-05,10.92185,-3.61E-05,10.92185,7.17E-05,10.92185,5.49E-05,,0
10.9219,2.28E-05,10.9219,-5.91E-05,10.9219,-3.39E-05,10.9219,6.94E-05,10.9219,5.49E-05,,0
10.92195,2.15E-05,10.92195,-5.78E-05,10.92195,-3.18E-05,10.92195,6.68E-05,10.92195,5.49E-05,,0
10.922,2.04E-05,10.922,-5.60E-05,10.922,-3.00E-05,10.922,6.47E-05,10.922,5.49E-05,,0
10.92205,1.96E-05,10.92205,-5.47E-05,10.92205,-2.83E-05,10.92205,6.28E-05,10.92205,5.49E-05,,0
10.9221,1.90E-05,10.9221,-5.29E-05,10.9221,-2.65E-05,10.9221,5.98E-05,10.9221,5.49E-05,,0
10.92215,1.81E-05,10.92215,-5.10E-05,10.92215,-2.55E-05,10.92215,5.84E-05,10.92215,5.49E-05,,0
10.9222,1.75E-05,10.9222,-4.90E-05,10.9222,-2.52E-05,10.9222,5.63E-05,10.9222,5.49E-05,,0
10.92225,1.65E-05,10.92225,-4.71E-05,10.92225,-2.42E-05,10.92225,5.42E-05,10.92225,5.49E-05,,0
10.9223,1.73E-05,10.9223,-4.55E-05,10.9223,-2.45E-05,10.9223,5.24E-05,10.9223,5.49E-05,,0
10.92235,1.68E-05,10.92235,-4.35E-05,10.92235,-2.45E-05,10.92235,5.04E-05,10.92235,5.49E-05,,0
10.9224,1.67E-05,10.9224,-4.21E-05,10.9224,-2.47E-05,10.9224,4.86E-05,10.9224,5.49E-05,,0
10.92245,1.68E-05,10.92245,-3.96E-05,10.92245,-2.52E-05,10.92245,4.75E-05,10.92245,5.49E-05,,0
10.9225,1.73E-05,10.9225,-3.77E-05,10.9225,-2.62E-05,10.9225,4.70E-05,10.9225,5.49E-05,,0
10.92255,1.70E-05,10.92255,-3.62E-05,10.92255,-2.76E-05,10.92255,4.59E-05,10.92255,5.49E-05,,0
10.9226,1.77E-05,10.9226,-3.44E-05,10.9226,-2.84E-05,10.9226,4.49E-05,10.9226,5.49E-05,,0
10.92265,1.78E-05,10.92265,-3.23E-05,10.92265,-2.99E-05,10.92265,4.46E-05,10.92265,5.49E-05,,0
10.9227,1.86E-05,10.9227,-3.04E-05,10.9227,-3.12E-05,10.9227,4.38E-05,10.9227,5.49E-05,,0
10.92275,1.93E-05,10.92275,-2.86E-05,10.92275,-3.30E-05,10.92275,4.36E-05,10.92275,5.49E-05,,0
10.9228,1.96E-05,10.9228,-2.68E-05,10.9228,-3.49E-05,10.9228,4.28E-05,10.9228,5.49E-05,,0
10.92285,2.07E-05,10.92285,-2.49E-05,10.92285,-3.73E-05,10.92285,4.18E-05,10.92285,5.49E-05,,0
10.9229,2.09E-05,10.9229,-2.36E-05,10.9229,-3.90E-05,10.9229,4.12E-05,10.9229,5.49E-05,,0
10.92295,2.20E-05,10.92295,-2.18E-05,10.92295,-4.11E-05,10.92295,4.02E-05,10.92295,5.49E-05,,0
10.923,2.32E-05,10.923,-2.10E-05,10.923,-4.35E-05,10.923,4.02E-05,10.923,5.49E-05,,0
10.92305,2.37E-05,10.92305,-1.97E-05,10.92305,-4.48E-05,10.92305,4.00E-05,10.92305,5.49E-05,,0
10.9231,2.46E-05,10.9231,-1.79E-05,10.9231,-4.68E-05,10.9231,3.94E-05,10.9231,5.49E-05,,0
10.92315,2.51E-05,10.92315,-1.67E-05,10.92315,-4.81E-05,10.92315,3.86E-05,10.92315,5.49E-05,,0
10.9232,2.58E-05,10.9232,-1.56E-05,10.9232,-4.97E-05,10.9232,3.86E-05,10.9232,5.50E-05,,0
10.92325,2.61E-05,10.92325,-1.45E-05,10.92325,-5.08E-05,10.92325,3.83E-05,10.92325,5.50E-05,,0
10.9233,2.69E-05,10.9233,-1.37E-05,10.9233,-5.20E-05,10.9233,3.81E-05,10.9233,5.50E-05,,0
10.92335,2.77E-05,10.92335,-1.30E-05,10.92335,-5.26E-05,10.92335,3.78E-05,10.92335,5.50E-05,,0
10.9234,2.74E-05,10.9234,-1.24E-05,10.9234,-5.34E-05,10.9234,3.70E-05,10.9234,5.50E-05,,0
10.92345,2.77E-05,10.92345,-1.14E-05,10.92345,-5.41E-05,10.92345,3.71E-05,10.92345,5.50E-05,,0
10.9235,2.79E-05,10.9235,-1.06E-05,10.9235,-5.42E-05,10.9235,3.66E-05,10.9235,5.50E-05,,0
10.92355,2.80E-05,10.92355,-1.04E-05,10.92355,-5.42E-05,10.92355,3.66E-05,10.92355,5.50E-05,,0
10.9236,2.82E-05,10.9236,-9.77E-06,10.9236,-5.49E-05,10.9236,3.71E-05,10.9236,5.50E-05,,0
10.92365,2.79E-05,10.92365,-9.93E-06,10.92365,-5.45E-05,10.92365,3.68E-05,10.92365,5.50E-05,,0
10.9237,2.82E-05,10.9237,-9.77E-06,10.9237,-5.47E-05,10.9237,3.62E-05,10.9237,5.50E-05,,0
10.92375,2.77E-05,10.92375,-9.60E-06,10.92375,-5.42E-05,10.92375,3.52E-05,10.92375,5.50E-05,,0
10.9238,2.71E-05,10.9238,-9.28E-06,10.9238,-5.42E-05,10.9238,3.50E-05,10.9238,5.50E-05,,0
10.92385,2.69E-05,10.92385,-9.44E-06,10.92385,-5.34E-05,10.92385,3.44E-05,10.92385,5.50E-05,,0
10.9239,2.71E-05,10.9239,-8.95E-06,10.9239,-5.33E-05,10.9239,3.34E-05,10.9239,5.50E-05,,0
10.92395,2.71E-05,10.92395,-8.47E-06,10.92395,-5.24E-05,10.92395,3.32E-05,10.92395,5.50E-05,,0
10.924,2.77E-05,10.924,-8.95E-06,10.924,-5.20E-05,10.924,3.21E-05,10.924,5.50E-05,,0
10.92405,2.74E-05,10.92405,-9.12E-06,10.92405,-5.13E-05,10.92405,3.06E-05,10.92405,5.50E-05,,0
10.9241,2.76E-05,10.9241,-8.95E-06,10.9241,-5.10E-05,10.9241,2.92E-05,10.9241,5.50E-05,,0
10.92415,2.84E-05,10.92415,-9.12E-06,10.92415,-5.08E-05,10.92415,2.84E-05,10.92415,5.50E-05,,0
10.9242,2.90E-05,10.9242,-9.28E-06,10.9242,-5.05E-05,10.9242,2.71E-05,10.9242,5.50E-05,,0
10.92425,2.98E-05,10.92425,-9.60E-06,10.92425,-5.00E-05,10.92425,2.53E-05,10.92425,5.50E-05,,0
10.9243,3.08E-05,10.9243,-1.03E-05,10.9243,-4.89E-05,10.9243,2.38E-05,10.9243,5.50E-05,,0
10.92435,3.21E-05,10.92435,-1.04E-05,10.92435,-4.82E-05,10.92435,2.30E-05,10.92435,5.50E-05,,0
10.9244,3.34E-05,10.9244,-1.07E-05,10.9244,-4.84E-05,10.9244,2.14E-05,10.9244,5.50E-05,,0
10.92445,3.52E-05,10.92445,-1.14E-05,10.92445,-4.81E-05,10.92445,1.99E-05,10.92445,5.50E-05,,0
10.9245,3.70E-05,10.9245,-1.19E-05,10.9245,-4.79E-05,10.9245,1.83E-05,10.9245,5.50E-05,,0
10.92455,3.89E-05,10.92455,-1.24E-05,10.92455,-4.77E-05,10.92455,1.70E-05,10.92455,5.50E-05,,0
10.9246,4.12E-05,10.9246,-1.32E-05,10.9246,-4.77E-05,10.9246,1.57E-05,10.9246,5.50E-05,,0
10.92465,4.26E-05,10.92465,-1.32E-05,10.92465,-4.77E-05,10.92465,1.39E-05,10.92465,5.50E-05,,0
10.9247,4.48E-05,10.9247,-1.40E-05,10.9247,-4.71E-05,10.9247,1.26E-05,10.9247,5.50E-05,,0
10.92475,4.72E-05,10.92475,-1.46E-05,10.92475,-4.71E-05,10.92475,1.10E-05,10.92475,5.50E-05,,0
10.9248,4.90E-05,10.9248,-1.53E-05,10.9248,-4.74E-05,10.9248,9.54E-06,10.9248,5.50E-05,,0
10.92485,5.04E-05,10.92485,-1.56E-05,10.92485,-4.69E-05,10.92485,8.89E-06,10.92485,5.49E-05,,0
10.9249,5.22E-05,10.9249,-1.66E-05,10.9249,-4.69E-05,10.9249,7.43E-06,10.9249,5.49E-05,,0
10.92495,5.43E-05,10.92495,-1.69E-05,10.92495,-4.66E-05,10.92495,5.97E-06,10.92495,5.49E-05,,0
10.925,5.56E-05,10.925,-1.72E-05,10.925,-4.61E-05,10.925,5.00E-06,10.925,5.49E-05,,0
10.92505,5.66E-05,10.92505,-1.79E-05,10.92505,-4.58E-05,10.92505,3.86E-06,10.92505,5.49E-05,,0
10.9251,5.74E-05,10.9251,-1.82E-05,10.9251,-4.55E-05,10.9251,2.89E-06,10.9251,5.49E-05,,0
10.92515,5.82E-05,10.92515,-1.87E-05,10.92515,-4.53E-05,10.92515,2.40E-06,10.92515,5.49E-05,,0
10.9252,5.82E-05,10.9252,-1.87E-05,10.9252,-4.55E-05,10.9252,1.43E-06,10.9252,5.49E-05,,0
10.92525,5.92E-05,10.92525,-1.89E-05,10.92525,-4.43E-05,10.92525,1.11E-06,10.92525,5.49E-05,,0
10.9253,5.90E-05,10.9253,-1.92E-05,10.9253,-4.34E-05,10.9253,2.94E-07,10.9253,5.49E-05,,0
10.92535,5.79E-05,10.92535,-1.92E-05,10.92535,-4.30E-05,10.92535,-1.93E-07,10.92535,5.49E-05,,0
10.9254,5.77E-05,10.9254,-1.89E-05,10.9254,-4.14E-05,10.9254,-5.17E-07,10.9254,5.49E-05,,0
10.92545,5.64E-05,10.92545,-1.84E-05,10.92545,-3.99E-05,10.92545,-1.00E-06,10.92545,5.49E-05,,0
10.9255,5.53E-05,10.9255,-1.89E-05,10.9255,-3.80E-05,10.9255,-1.00E-06,10.9255,5.49E-05,,0
10.92555,5.42E-05,10.92555,-1.92E-05,10.92555,-3.69E-05,10.92555,-1.49E-06,10.92555,5.49E-05,,0
10.9256,5.24E-05,10.9256,-1.87E-05,10.9256,-3.44E-05,10.9256,-1.82E-06,10.9256,5.49E-05,,0
10.92565,5.03E-05,10.92565,-1.84E-05,10.92565,-3.22E-05,10.92565,-2.30E-06,10.92565,5.48E-05,,0
10.9257,4.85E-05,10.9257,-1.80E-05,10.9257,-3.07E-05,10.9257,-2.79E-06,10.9257,5.48E-05,,0
10.92575,4.67E-05,10.92575,-1.79E-05,10.92575,-2.75E-05,10.92575,-2.46E-06,10.92575,5.48E-05,,0
10.9258,4.46E-05,10.9258,-1.84E-05,10.9258,-2.52E-05,10.9258,-2.63E-06,10.9258,5.48E-05,,0
10.92585,4.17E-05,10.92585,-1.80E-05,10.92585,-2.27E-05,10.92585,-2.63E-06,10.92585,5.48E-05,,0
10.9259,4.02E-05,10.9259,-1.87E-05,10.9259,-2.05E-05,10.9259,-2.46E-06,10.9259,5.48E-05,,0
10.92595,3.73E-05,10.92595,-1.87E-05,10.92595,-1.79E-05,10.92595,-2.46E-06,10.92595,5.48E-05,,0
10.926,3.50E-05,10.926,-1.85E-05,10.926,-1.48E-05,10.926,-1.82E-06,10.926,5.48E-05,,0
10.92605,3.21E-05,10.92605,-1.93E-05,10.92605,-1.22E-05,10.92605,-2.30E-06,10.92605,5.48E-05,,0
10.9261,3.00E-05,10.9261,-2.00E-05,10.9261,-9.44E-06,10.9261,-1.33E-06,10.9261,5.48E-05,,0
10.92615,2.77E-05,10.92615,-2.02E-05,10.92615,-6.85E-06,10.92615,-1.00E-06,10.92615,5.48E-05,,0
10.9262,2.58E-05,10.9262,-2.11E-05,10.9262,-4.25E-06,10.9262,-8.42E-07,10.9262,5.48E-05,,0
10.92625,2.28E-05,10.92625,-2.21E-05,10.92625,-1.33E-06,10.92625,-1.93E-07,10.92625,5.48E-05,,0
10.9263,2.07E-05,10.9263,-2.31E-05,10.9263,1.11E-06,10.9263,6.19E-07,10.9263,5.48E-05,,0
10.92635,1.81E-05,10.92635,-2.39E-05,10.92635,3.86E-06,10.92635,1.27E-06,10.92635,5.48E-05,,0
10.9264,1.59E-05,10.9264,-2.52E-05,10.9264,6.30E-06,10.9264,2.40E-06,10.9264,5.48E-05,,0
10.92645,1.36E-05,10.92645,-2.62E-05,10.92645,8.57E-06,10.92645,3.05E-06,10.92645,5.48E-05,,0
10.9265,1.12E-05,10.9265,-2.70E-05,10.9265,1.05E-05,10.9265,4.03E-06,10.9265,5.48E-05,,0
10.92655,8.73E-06,10.92655,-2.79E-05,10.92655,1.26E-05,10.92655,5.16E-06,10.92655,5.48E-05,,0
10.9266,5.65E-06,10.9266,-2.86E-05,10.9266,1.55E-05,10.9266,6.46E-06,10.9266,5.48E-05,,0
10.92665,3.05E-06,10.92665,-3.00E-05,10.92665,1.80E-05,10.92665,8.08E-06,10.92665,5.48E-05,,0
10.9267,1.32E-07,10.9267,-3.09E-05,10.9267,1.99E-05,10.9267,1.00E-05,10.9267,5.48E-05,,0
10.92675,-2.30E-06,10.92675,-3.18E-05,10.92675,2.22E-05,10.92675,1.15E-05,10.92675,5.48E-05,,0
10.9268,-5.06E-06,10.9268,-3.26E-05,10.9268,2.40E-05,10.9268,1.34E-05,10.9268,5.48E-05,,0
10.92685,-7.82E-06,10.92685,-3.33E-05,10.92685,2.54E-05,10.92685,1.55E-05,10.92685,5.48E-05,,0
10.9269,-1.12E-05,10.9269,-3.43E-05,10.9269,2.77E-05,10.9269,1.73E-05,10.9269,5.48E-05,,0
10.92695,-1.35E-05,10.92695,-3.51E-05,10.92695,2.89E-05,10.92695,1.88E-05,10.92695,5.48E-05,,0
10.927,-1.72E-05,10.927,-3.61E-05,10.927,3.01E-05,10.927,2.12E-05,10.927,5.48E-05,,0
10.92705,-2.03E-05,10.92705,-3.57E-05,10.92705,3.21E-05,10.92705,2.28E-05,10.92705,5.48E-05,,0
10.9271,-2.34E-05,10.9271,-3.61E-05,10.9271,3.27E-05,10.9271,2.50E-05,10.9271,5.48E-05,,0
10.92715,-2.68E-05,10.92715,-3.59E-05,10.92715,3.45E-05,10.92715,2.67E-05,10.92715,5.48E-05,,0
10.9272,-3.00E-05,10.9272,-3.65E-05,10.9272,3.57E-05,10.9272,2.82E-05,10.9272,5.48E-05,,0
10.92725,-3.30E-05,10.92725,-3.59E-05,10.92725,3.70E-05,10.92725,3.00E-05,10.92725,5.48E-05,,0
10.9273,-3.59E-05,10.9273,-3.52E-05,10.9273,3.79E-05,10.9273,3.19E-05,10.9273,5.48E-05,,0
10.92735,-3.93E-05,10.92735,-3.44E-05,10.92735,3.91E-05,10.92735,3.31E-05,10.92735,5.48E-05,,0
10.9274,-4.24E-05,10.9274,-3.39E-05,10.9274,4.00E-05,10.9274,3.45E-05,10.9274,5.48E-05,,0
10.92745,-4.55E-05,10.92745,-3.26E-05,10.92745,4.09E-05,10.92745,3.52E-05,10.92745,5.48E-05,,0
10.9275,-4.85E-05,10.9275,-3.15E-05,10.9275,4.22E-05,10.9275,3.57E-05,10.9275,5.48E-05,,0
10.92755,-5.13E-05,10.92755,-2.99E-05,10.92755,4.31E-05,10.92755,3.63E-05,10.92755,5.48E-05,,0
10.9276,-5.45E-05,10.9276,-2.81E-05,10.9276,4.44E-05,10.9276,3.66E-05,10.9276,5.48E-05,,0
10.92765,-5.73E-05,10.92765,-2.70E-05,10.92765,4.54E-05,10.92765,3.63E-05,10.92765,5.48E-05,,0
10.9277,-6.06E-05,10.9277,-2.44E-05,10.9277,4.69E-05,10.9277,3.58E-05,10.9277,5.48E-05,,0
10.92775,-6.38E-05,10.92775,-2.26E-05,10.92775,4.82E-05,10.92775,3.55E-05,10.92775,5.48E-05,,0
10.9278,-6.66E-05,10.9278,-2.00E-05,10.9278,4.95E-05,10.9278,3.49E-05,10.9278,5.47E-05,,0
10.92785,-6.96E-05,10.92785,-1.79E-05,10.92785,5.14E-05,10.92785,3.39E-05,10.92785,5.47E-05,,0
10.9279,-7.29E-05,10.9279,-1.56E-05,10.9279,5.30E-05,10.9279,3.27E-05,10.9279,5.47E-05,,0
10.92795,-7.55E-05,10.92795,-1.35E-05,10.92795,5.50E-05,10.92795,3.13E-05,10.92795,5.47E-05,,0
10.928,-7.86E-05,10.928,-1.09E-05,10.928,5.72E-05,10.928,3.01E-05,10.928,5.47E-05,,0
10.92805,-8.12E-05,10.92805,-8.47E-06,10.92805,5.92E-05,10.92805,2.85E-05,10.92805,5.47E-05,,0
10.9281,-8.38E-05,10.9281,-6.85E-06,10.9281,6.16E-05,10.9281,2.72E-05,10.9281,5.47E-05,,0
10.92815,-8.62E-05,10.92815,-4.57E-06,10.92815,6.31E-05,10.92815,2.48E-05,10.92815,5.47E-05,,0
10.9282,-8.85E-05,10.9282,-2.95E-06,10.9282,6.50E-05,10.9282,2.37E-05,10.9282,5.47E-05,,0
10.92825,-9.07E-05,10.92825,-1.33E-06,10.92825,6.73E-05,10.92825,2.17E-05,10.92825,5.46E-05,,0
10.9283,-9.28E-05,10.9283,6.19E-07,10.9283,6.91E-05,10.9283,2.03E-05,10.9283,5.46E-05,,0
10.92835,-9.45E-05,10.92835,2.24E-06,10.92835,7.07E-05,10.92835,1.91E-05,10.92835,5.46E-05,,0
10.9284,-9.62E-05,10.9284,3.38E-06,10.9284,7.25E-05,10.9284,1.73E-05,10.9284,5.46E-05,,0
10.92845,-9.75E-05,10.92845,5.00E-06,10.92845,7.36E-05,10.92845,1.59E-05,10.92845,5.46E-05,,0
10.9285,-9.87E-05,10.9285,6.46E-06,10.9285,7.43E-05,10.9285,1.47E-05,10.9285,5.46E-05,,0
10.92855,-9.97E-05,10.92855,6.62E-06,10.92855,7.56E-05,10.92855,1.44E-05,10.92855,5.46E-05,,0
10.9286,-0.000100305,10.9286,7.92E-06,10.9286,7.64E-05,10.9286,1.31E-05,10.9286,5.46E-05,,0
10.92865,-0.000100305,10.92865,8.89E-06,10.92865,7.66E-05,10.92865,1.25E-05,10.92865,5.46E-05,,0
10.9287,-0.000101116,10.9287,9.54E-06,10.9287,7.64E-05,10.9287,1.18E-05,10.9287,5.46E-05,,0
10.92875,-0.000101278,10.92875,9.71E-06,10.92875,7.67E-05,10.92875,1.13E-05,10.92875,5.46E-05,,0
10.9288,-0.000101278,10.9288,9.87E-06,10.9288,7.67E-05,10.9288,1.18E-05,10.9288,5.46E-05,,0
10.92885,-0.000100954,10.92885,1.04E-05,10.92885,7.59E-05,10.92885,1.17E-05,10.92885,5.46E-05,,0
10.9289,-0.000100629,10.9289,1.05E-05,10.9289,7.53E-05,10.9289,1.13E-05,10.9289,5.46E-05,,0
10.92895,-0.000100305,10.92895,1.04E-05,10.92895,7.41E-05,10.92895,1.18E-05,10.92895,5.46E-05,,0
10.929,-9.97E-05,10.929,1.04E-05,10.929,7.38E-05,10.929,1.18E-05,10.929,5.46E-05,,0
10.92905,-9.85E-05,10.92905,1.02E-05,10.92905,7.27E-05,10.92905,1.20E-05,10.92905,5.46E-05,,0
10.9291,-9.79E-05,10.9291,9.54E-06,10.9291,7.14E-05,10.9291,1.30E-05,10.9291,5.46E-05,,0
10.92915,-9.69E-05,10.92915,9.54E-06,10.92915,7.02E-05,10.92915,1.41E-05,10.92915,5.46E-05,,0
10.9292,-9.58E-05,10.9292,8.73E-06,10.9292,6.88E-05,10.9292,1.44E-05,10.9292,5.46E-05,,0
10.92925,-9.45E-05,10.92925,8.24E-06,10.92925,6.78E-05,10.92925,1.55E-05,10.92925,5.46E-05,,0
10.9293,-9.35E-05,10.9293,7.43E-06,10.9293,6.65E-05,10.9293,1.65E-05,10.9293,5.46E-05,,0
10.92935,-9.24E-05,10.92935,6.62E-06,10.92935,6.55E-05,10.92935,1.72E-05,10.92935,5.46E-05,,0
10.9294,-9.11E-05,10.9294,6.46E-06,10.9294,6.45E-05,10.9294,1.80E-05,10.9294,5.46E-05,,0
10.92945,-8.99E-05,10.92945,5.16E-06,10.92945,6.32E-05,10.92945,1.83E-05,10.92945,5.46E-05,,0
10.9295,-8.85E-05,10.9295,4.84E-06,10.9295,6.20E-05,10.9295,1.86E-05,10.9295,5.46E-05,,0
10.92955,-8.68E-05,10.92955,3.70E-06,10.92955,6.05E-05,10.92955,1.78E-05,10.92955,5.46E-05,,0
10.9296,-8.55E-05,10.9296,3.70E-06,10.9296,5.92E-05,10.9296,1.81E-05,10.9296,5.46E-05,,0
10.92965,-8.38E-05,10.92965,3.38E-06,10.92965,5.77E-05,10.92965,1.78E-05,10.92965,5.46E-05,,0
10.9297,-8.18E-05,10.9297,3.21E-06,10.9297,5.69E-05,10.9297,1.72E-05,10.9297,5.46E-05,,0
10.92975,-8.00E-05,10.92975,3.38E-06,10.92975,5.55E-05,10.92975,1.59E-05,10.92975,5.47E-05,,0
10.9298,-7.79E-05,10.9298,3.70E-06,10.9298,5.38E-05,10.9298,1.49E-05,10.9298,5.47E-05,,0
10.92985,-7.55E-05,10.92985,4.35E-06,10.92985,5.17E-05,10.92985,1.31E-05,10.92985,5.47E-05,,0
10.9299,-7.30E-05,10.9299,5.97E-06,10.9299,5.01E-05,10.9299,1.08E-05,10.9299,5.47E-05,,0
10.92995,-7.11E-05,10.92995,7.76E-06,10.92995,4.85E-05,10.92995,9.22E-06,10.92995,5.47E-05,,0
10.93,-6.85E-05,10.93,9.54E-06,10.93,4.62E-05,10.93,6.30E-06,10.93,5.47E-05,,0
10.93005,-6.57E-05,10.93005,1.17E-05,10.93005,4.39E-05,10.93005,3.38E-06,10.93005,5.47E-05,,0
10.9301,-6.33E-05,10.9301,1.52E-05,10.9301,4.18E-05,10.9301,6.19E-07,10.9301,5.47E-05,,0
10.93015,-6.01E-05,10.93015,1.77E-05,10.93015,3.92E-05,10.93015,-4.09E-06,10.93015,5.47E-05,,0
10.9302,-5.73E-05,10.9302,2.15E-05,10.9302,3.63E-05,10.9302,-7.66E-06,10.9302,5.47E-05,,0
10.93025,-5.42E-05,10.93025,2.54E-05,10.93025,3.39E-05,10.93025,-1.20E-05,10.93025,5.48E-05,,0
10.9303,-5.08E-05,10.9303,2.93E-05,10.9303,3.10E-05,10.9303,-1.61E-05,10.9303,5.48E-05,,0
10.93035,-4.72E-05,10.93035,3.34E-05,10.93035,2.77E-05,10.93035,-2.13E-05,10.93035,5.48E-05,,0
10.9304,-4.38E-05,10.9304,3.79E-05,10.9304,2.56E-05,10.9304,-2.53E-05,10.9304,5.48E-05,,0
10.93045,-4.03E-05,10.93045,4.18E-05,10.93045,2.25E-05,10.93045,-3.04E-05,10.93045,5.48E-05,,0
10.9305,-3.73E-05,10.9305,4.61E-05,10.9305,1.99E-05,10.9305,-3.52E-05,10.9305,5.48E-05,,0
10.93055,-3.36E-05,10.93055,4.99E-05,10.93055,1.67E-05,10.93055,-4.03E-05,10.93055,5.48E-05,,0
10.9306,-2.97E-05,10.9306,5.34E-05,10.9306,1.34E-05,10.9306,-4.51E-05,10.9306,5.48E-05,,0
10.93065,-2.63E-05,10.93065,5.68E-05,10.93065,1.13E-05,10.93065,-5.02E-05,10.93065,5.48E-05,,0
10.9307,-2.26E-05,10.9307,5.98E-05,10.9307,8.89E-06,10.9307,-5.47E-05,10.9307,5.48E-05,,0
10.93075,-1.92E-05,10.93075,6.26E-05,10.93075,6.46E-06,10.93075,-5.84E-05,10.93075,5.48E-05,,0
10.9308,-1.56E-05,10.9308,6.54E-05,10.9308,4.51E-06,10.9308,-6.30E-05,10.9308,5.48E-05,,0
10.93085,-1.22E-05,10.93085,6.71E-05,10.93085,3.54E-06,10.93085,-6.66E-05,10.93085,5.48E-05,,0
10.9309,-8.47E-06,10.9309,6.86E-05,10.9309,2.40E-06,10.9309,-7.03E-05,10.9309,5.48E-05,,0
10.93095,-5.22E-06,10.93095,6.99E-05,10.93095,1.27E-06,10.93095,-7.39E-05,10.93095,5.48E-05,,0
10.931,-2.30E-06,10.931,7.04E-05,10.931,7.81E-07,10.931,-7.66E-05,10.931,5.48E-05,,0
10.93105,7.81E-07,10.93105,7.07E-05,10.93105,1.43E-06,10.93105,-7.97E-05,10.93105,5.49E-05,,0
10.9311,3.38E-06,10.9311,7.04E-05,10.9311,1.43E-06,10.9311,-8.18E-05,10.9311,5.49E-05,,0
10.93115,6.30E-06,10.93115,6.94E-05,10.93115,1.59E-06,10.93115,-8.44E-05,10.93115,5.49E-05,,0
10.9312,8.73E-06,10.9312,6.83E-05,10.9312,2.73E-06,10.9312,-8.60E-05,10.9312,5.49E-05,,0
10.93125,1.05E-05,10.93125,6.63E-05,10.93125,4.19E-06,10.93125,-8.78E-05,10.93125,5.49E-05,,0
10.9313,1.28E-05,10.9313,6.45E-05,10.9313,5.16E-06,10.9313,-8.88E-05,10.9313,5.49E-05,,0
10.93135,1.42E-05,10.93135,6.15E-05,10.93135,7.60E-06,10.93135,-8.94E-05,10.93135,5.49E-05,,0
10.9314,1.57E-05,10.9314,5.87E-05,10.9314,9.22E-06,10.9314,-9.06E-05,10.9314,5.49E-05,,0
10.93145,1.68E-05,10.93145,5.56E-05,10.93145,1.18E-05,10.93145,-9.02E-05,10.93145,5.49E-05,,0
10.9315,1.81E-05,10.9315,5.22E-05,10.9315,1.41E-05,10.9315,-8.99E-05,10.9315,5.49E-05,,0
10.93155,1.90E-05,10.93155,4.86E-05,10.93155,1.67E-05,10.93155,-8.91E-05,10.93155,5.48E-05,,0
10.9316,1.93E-05,10.9316,4.49E-05,10.9316,1.99E-05,10.9316,-8.83E-05,10.9316,5.48E-05,,0
10.93165,1.98E-05,10.93165,4.05E-05,10.93165,2.19E-05,10.93165,-8.72E-05,10.93165,5.48E-05,,0
10.9317,1.98E-05,10.9317,3.68E-05,10.9317,2.46E-05,10.9317,-8.60E-05,10.9317,5.48E-05,,0
10.93175,1.99E-05,10.93175,3.31E-05,10.93175,2.72E-05,10.93175,-8.46E-05,10.93175,5.48E-05,,0
10.9318,1.98E-05,10.9318,2.89E-05,10.9318,2.98E-05,10.9318,-8.28E-05,10.9318,5.48E-05,,0
10.93185,1.90E-05,10.93185,2.51E-05,10.93185,3.16E-05,10.93185,-8.08E-05,10.93185,5.48E-05,,0
10.9319,1.80E-05,10.9319,2.15E-05,10.9319,3.39E-05,10.9319,-7.87E-05,10.9319,5.48E-05,,0
10.93195,1.75E-05,10.93195,1.80E-05,10.93195,3.65E-05,10.93195,-7.61E-05,10.93195,5.48E-05,,0
10.932,1.57E-05,10.932,1.46E-05,10.932,3.86E-05,10.932,-7.35E-05,10.932,5.48E-05,,0
10.93205,1.36E-05,10.93205,1.17E-05,10.93205,3.97E-05,10.93205,-7.08E-05,10.93205,5.48E-05,,0
10.9321,1.28E-05,10.9321,8.73E-06,10.9321,4.17E-05,10.9321,-6.77E-05,10.9321,5.48E-05,,0
10.93215,1.08E-05,10.93215,6.30E-06,10.93215,4.35E-05,10.93215,-6.46E-05,10.93215,5.48E-05,,0
10.9322,8.89E-06,10.9322,4.19E-06,10.9322,4.49E-05,10.9322,-6.12E-05,10.9322,5.48E-05,,0
10.93225,6.46E-06,10.93225,2.08E-06,10.93225,4.51E-05,10.93225,-5.78E-05,10.93225,5.47E-05,,0
10.9323,3.54E-06,10.9323,4.57E-07,10.9323,4.54E-05,10.9323,-5.45E-05,10.9323,5.47E-05,,0
10.93235,1.59E-06,10.93235,-1.00E-06,10.93235,4.54E-05,10.93235,-5.13E-05,10.93235,5.47E-05,,0
10.9324,-6.79E-07,10.9324,-2.30E-06,10.9324,4.52E-05,10.9324,-4.71E-05,10.9324,5.47E-05,,0
10.93245,-3.44E-06,10.93245,-3.11E-06,10.93245,4.48E-05,10.93245,-4.35E-05,10.93245,5.47E-05,,0
10.9325,-5.87E-06,10.9325,-3.28E-06,10.9325,4.41E-05,10.9325,-3.93E-05,10.9325,5.47E-05,,0
10.93255,-7.98E-06,10.93255,-3.92E-06,10.93255,4.23E-05,10.93255,-3.69E-05,10.93255,5.47E-05,,0
10.9326,-1.11E-05,10.9326,-3.28E-06,10.9326,4.17E-05,10.9326,-3.31E-05,10.9326,5.47E-05,,0
10.93265,-1.28E-05,10.93265,-2.79E-06,10.93265,3.92E-05,10.93265,-2.99E-05,10.93265,5.47E-05,,0
10.9327,-1.54E-05,10.9327,-2.14E-06,10.9327,3.73E-05,10.9327,-2.66E-05,10.9327,5.47E-05,,0
10.93275,-1.76E-05,10.93275,-1.00E-06,10.93275,3.42E-05,10.93275,-2.40E-05,10.93275,5.47E-05,,0
10.9328,-1.92E-05,10.9328,7.81E-07,10.9328,3.16E-05,10.9328,-2.10E-05,10.9328,5.46E-05,,0
10.93285,-2.10E-05,10.93285,2.73E-06,10.93285,2.82E-05,10.93285,-1.85E-05,10.93285,5.46E-05,,0
10.9329,-2.27E-05,10.9329,5.00E-06,10.9329,2.50E-05,10.9329,-1.59E-05,10.9329,5.46E-05,,0
10.93295,-2.34E-05,10.93295,7.27E-06,10.93295,2.15E-05,10.93295,-1.43E-05,10.93295,5.46E-05,,0
10.933,-2.40E-05,10.933,9.71E-06,10.933,1.81E-05,10.933,-1.28E-05,10.933,5.46E-05,,0
10.93305,-2.52E-05,10.93305,1.20E-05,10.93305,1.49E-05,10.93305,-1.09E-05,10.93305,5.46E-05,,0
10.9331,-2.53E-05,10.9331,1.51E-05,10.9331,1.10E-05,10.9331,-9.44E-06,10.9331,5.46E-05,,0
10.93315,-2.62E-05,10.93315,1.73E-05,10.93315,7.76E-06,10.93315,-8.79E-06,10.93315,5.46E-05,,0
10.9332,-2.62E-05,10.9332,2.03E-05,10.9332,4.84E-06,10.9332,-8.14E-06,10.9332,5.46E-05,,0
10.93325,-2.63E-05,10.93325,2.30E-05,10.93325,7.81E-07,10.93325,-7.98E-06,10.93325,5.46E-05,,0
10.9333,-2.58E-05,10.9333,2.56E-05,10.9333,-1.49E-06,10.9333,-7.82E-06,10.9333,5.46E-05,,0
10.93335,-2.53E-05,10.93335,2.80E-05,10.93335,-4.25E-06,10.93335,-8.31E-06,10.93335,5.46E-05,,0
10.9334,-2.49E-05,10.9334,3.03E-05,10.9334,-7.01E-06,10.9334,-8.31E-06,10.9334,5.46E-05,,0
10.93345,-2.39E-05,10.93345,3.24E-05,10.93345,-9.77E-06,10.93345,-8.79E-06,10.93345,5.46E-05,,0
10.9335,-2.29E-05,10.9335,3.44E-05,10.9335,-1.17E-05,10.9335,-9.60E-06,10.9335,5.46E-05,,0
10.93355,-2.18E-05,10.93355,3.70E-05,10.93355,-1.30E-05,10.93355,-1.09E-05,10.93355,5.46E-05,,0
10.9336,-2.03E-05,10.9336,3.78E-05,10.9336,-1.43E-05,10.9336,-1.16E-05,10.9336,5.46E-05,,0
10.93365,-1.89E-05,10.93365,3.91E-05,10.93365,-1.58E-05,10.93365,-1.27E-05,10.93365,5.46E-05,,0
10.9337,-1.77E-05,10.9337,4.02E-05,10.9337,-1.72E-05,10.9337,-1.41E-05,10.9337,5.46E-05,,0
10.93375,-1.63E-05,10.93375,4.09E-05,10.93375,-1.76E-05,10.93375,-1.50E-05,10.93375,5.46E-05,,0
10.9338,-1.40E-05,10.9338,4.17E-05,10.9338,-1.79E-05,10.9338,-1.66E-05,10.9338,5.46E-05,,0
10.93385,-1.27E-05,10.93385,4.17E-05,10.93385,-1.80E-05,10.93385,-1.79E-05,10.93385,5.46E-05,,0
10.9339,-1.09E-05,10.9339,4.13E-05,10.9339,-1.79E-05,10.9339,-1.98E-05,10.9339,5.46E-05,,0
10.93395,-9.28E-06,10.93395,4.09E-05,10.93395,-1.79E-05,10.93395,-2.06E-05,10.93395,5.46E-05,,0
10.934,-7.49E-06,10.934,4.02E-05,10.934,-1.71E-05,10.934,-2.19E-05,10.934,5.46E-05,,0
10.93405,-5.38E-06,10.93405,3.89E-05,10.93405,-1.66E-05,10.93405,-2.26E-05,10.93405,5.46E-05,,0
10.9341,-3.60E-06,10.9341,3.81E-05,10.9341,-1.53E-05,10.9341,-2.36E-05,10.9341,5.46E-05,,0
10.93415,-1.33E-06,10.93415,3.68E-05,10.93415,-1.45E-05,10.93415,-2.44E-05,10.93415,5.46E-05,,0
10.9342,-3.03E-08,10.9342,3.50E-05,10.9342,-1.32E-05,10.9342,-2.57E-05,10.9342,5.46E-05,,0
10.93425,1.43E-06,10.93425,3.24E-05,10.93425,-1.22E-05,10.93425,-2.60E-05,10.93425,5.45E-05,,0
10.9343,2.89E-06,10.9343,3.05E-05,10.9343,-1.04E-05,10.9343,-2.66E-05,10.9343,5.45E-05,,0
10.93435,4.35E-06,10.93435,2.84E-05,10.93435,-9.12E-06,10.93435,-2.68E-05,10.93435,5.45E-05,,0
10.9344,5.49E-06,10.9344,2.58E-05,10.9344,-7.49E-06,10.9344,-2.71E-05,10.9344,5.45E-05,,0
10.93445,6.46E-06,10.93445,2.35E-05,10.93445,-5.71E-06,10.93445,-2.66E-05,10.93445,5.45E-05,,0
10.9345,7.11E-06,10.9345,2.06E-05,10.9345,-3.92E-06,10.9345,-2.65E-05,10.9345,5.45E-05,,0
10.93455,7.76E-06,10.93455,1.81E-05,10.93455,-1.49E-06,10.93455,-2.62E-05,10.93455,5.44E-05,,0
10.9346,7.92E-06,10.9346,1.51E-05,10.9346,-1.93E-07,10.9346,-2.62E-05,10.9346,5.44E-05,,0
10.93465,8.57E-06,10.93465,1.25E-05,10.93465,1.75E-06,10.93465,-2.53E-05,10.93465,5.44E-05,,0
10.9347,8.08E-06,10.9347,9.38E-06,10.9347,3.21E-06,10.9347,-2.49E-05,10.9347,5.44E-05,,0
10.93475,8.24E-06,10.93475,7.92E-06,10.93475,5.00E-06,10.93475,-2.34E-05,10.93475,5.44E-05,,0
10.9348,7.76E-06,10.9348,4.84E-06,10.9348,6.30E-06,10.9348,-2.19E-05,10.9348,5.44E-05,,0
10.93485,7.27E-06,10.93485,2.57E-06,10.93485,8.24E-06,10.93485,-2.05E-05,10.93485,5.44E-05,,0
10.9349,6.46E-06,10.9349,-3.03E-08,10.9349,9.38E-06,10.9349,-1.89E-05,10.9349,5.44E-05,,0
10.93495,5.49E-06,10.93495,-2.46E-06,10.93495,1.04E-05,10.93495,-1.69E-05,10.93495,5.43E-05,,0
10.935,4.19E-06,10.935,-4.25E-06,10.935,1.17E-05,10.935,-1.50E-05,10.935,5.43E-05,,0
10.93505,3.38E-06,10.93505,-5.71E-06,10.93505,1.26E-05,10.93505,-1.32E-05,10.93505,5.43E-05,,0
10.9351,1.92E-06,10.9351,-7.82E-06,10.9351,1.30E-05,10.9351,-1.14E-05,10.9351,5.43E-05,,0
10.93515,6.19E-07,10.93515,-9.60E-06,10.93515,1.34E-05,10.93515,-8.47E-06,10.93515,5.43E-05,,0
10.9352,-5.17E-07,10.9352,-1.09E-05,10.9352,1.42E-05,10.9352,-5.71E-06,10.9352,5.43E-05,,0
10.93525,-2.30E-06,10.93525,-1.25E-05,10.93525,1.36E-05,10.93525,-2.95E-06,10.93525,5.43E-05,,0
10.9353,-3.44E-06,10.9353,-1.33E-05,10.9353,1.42E-05,10.9353,-1.17E-06,10.9353,5.43E-05,,0
10.93535,-4.90E-06,10.93535,-1.43E-05,10.93535,1.42E-05,10.93535,2.08E-06,10.93535,5.43E-05,,0
10.9354,-6.03E-06,10.9354,-1.53E-05,10.9354,1.34E-05,10.9354,4.68E-06,10.9354,5.43E-05,,0
10.93545,-7.01E-06,10.93545,-1.63E-05,10.93545,1.28E-05,10.93545,7.11E-06,10.93545,5.43E-05,,0
10.9355,-8.79E-06,10.9355,-1.71E-05,10.9355,1.20E-05,10.9355,9.22E-06,10.9355,5.44E-05,,0
10.93555,-9.77E-06,10.93555,-1.76E-05,10.93555,1.08E-05,10.93555,1.17E-05,10.93555,5.44E-05,,0
10.9356,-1.04E-05,10.9356,-1.85E-05,10.9356,9.54E-06,10.9356,1.36E-05,10.9356,5.44E-05,,0
10.93565,-1.14E-05,10.93565,-1.87E-05,10.93565,8.89E-06,10.93565,1.55E-05,10.93565,5.44E-05,,0
10.9357,-1.19E-05,10.9357,-1.89E-05,10.9357,7.60E-06,10.9357,1.77E-05,10.9357,5.44E-05,,0
10.93575,-1.22E-05,10.93575,-1.95E-05,10.93575,6.46E-06,10.93575,1.90E-05,10.93575,5.44E-05,,0
10.9358,-1.24E-05,10.9358,-1.95E-05,10.9358,5.16E-06,10.9358,2.07E-05,10.9358,5.44E-05,,0
10.93585,-1.22E-05,10.93585,-1.97E-05,10.93585,4.03E-06,10.93585,2.17E-05,10.93585,5.44E-05,,0
10.9359,-1.20E-05,10.9359,-2.00E-05,10.9359,3.05E-06,10.9359,2.24E-05,10.9359,5.44E-05,,0
10.93595,-1.14E-05,10.93595,-1.95E-05,10.93595,1.75E-06,10.93595,2.33E-05,10.93595,5.44E-05,,0
10.936,-1.11E-05,10.936,-1.95E-05,10.936,2.94E-07,10.936,2.37E-05,10.936,5.44E-05,,0
10.93605,-1.03E-05,10.93605,-1.98E-05,10.93605,-3.55E-07,10.93605,2.41E-05,10.93605,5.44E-05,,0
10.9361,-8.63E-06,10.9361,-1.98E-05,10.9361,-1.33E-06,10.9361,2.41E-05,10.9361,5.44E-05,,0
10.93615,-8.14E-06,10.93615,-1.98E-05,10.93615,-2.46E-06,10.93615,2.38E-05,10.93615,5.44E-05,,0
10.9362,-7.33E-06,10.9362,-1.98E-05,10.9362,-3.28E-06,10.9362,2.35E-05,10.9362,5.45E-05,,0
10.93625,-5.87E-06,10.93625,-1.98E-05,10.93625,-4.74E-06,10.93625,2.32E-05,10.93625,5.45E-05,,0
10.9363,-4.57E-06,10.9363,-1.95E-05,10.9363,-5.87E-06,10.9363,2.28E-05,10.9363,5.45E-05,,0
10.93635,-2.63E-06,10.93635,-1.90E-05,10.93635,-7.01E-06,10.93635,2.20E-05,10.93635,5.45E-05,,0
10.9364,-1.49E-06,10.9364,-1.84E-05,10.9364,-7.98E-06,10.9364,2.12E-05,10.9364,5.45E-05,,0
10.93645,-3.55E-07,10.93645,-1.79E-05,10.93645,-8.79E-06,10.93645,2.06E-05,10.93645,5.45E-05,,0
10.9365,1.27E-06,10.9365,-1.76E-05,10.9365,-9.77E-06,10.9365,1.96E-05,10.9365,5.45E-05,,0
10.93655,3.05E-06,10.93655,-1.74E-05,10.93655,-1.12E-05,10.93655,1.83E-05,10.93655,5.45E-05,,0
10.9366,4.51E-06,10.9366,-1.67E-05,10.9366,-1.25E-05,10.9366,1.73E-05,10.9366,5.45E-05,,0
10.93665,5.81E-06,10.93665,-1.64E-05,10.93665,-1.35E-05,10.93665,1.65E-05,10.93665,5.45E-05,,0
10.9367,7.27E-06,10.9367,-1.56E-05,10.9367,-1.48E-05,10.9367,1.55E-05,10.9367,5.45E-05,,0
10.93675,8.89E-06,10.93675,-1.46E-05,10.93675,-1.58E-05,10.93675,1.46E-05,10.93675,5.45E-05,,0
10.9368,1.02E-05,10.9368,-1.37E-05,10.9368,-1.74E-05,10.9368,1.38E-05,10.9368,5.45E-05,,0
10.93685,1.20E-05,10.93685,-1.32E-05,10.93685,-1.77E-05,10.93685,1.26E-05,10.93685,5.45E-05,,0
10.9369,1.38E-05,10.9369,-1.20E-05,10.9369,-1.90E-05,10.9369,1.15E-05,10.9369,5.45E-05,,0
10.93695,1.49E-05,10.93695,-1.17E-05,10.93695,-2.02E-05,10.93695,1.05E-05,10.93695,5.46E-05,,0
10.937,1.64E-05,10.937,-1.07E-05,10.937,-2.06E-05,10.937,8.89E-06,10.937,5.46E-05,,0
10.93705,1.80E-05,10.93705,-9.77E-06,10.93705,-2.16E-05,10.93705,7.92E-06,10.93705,5.46E-05,,0
10.9371,1.93E-05,10.9371,-9.12E-06,10.9371,-2.27E-05,10.9371,6.62E-06,10.9371,5.46E-05,,0
10.93715,2.09E-05,10.93715,-8.47E-06,10.93715,-2.37E-05,10.93715,5.49E-06,10.93715,5.46E-05,,0
10.9372,2.24E-05,10.9372,-8.14E-06,10.9372,-2.40E-05,10.9372,4.51E-06,10.9372,5.46E-05,,0
10.93725,2.45E-05,10.93725,-7.66E-06,10.93725,-2.52E-05,10.93725,3.38E-06,10.93725,5.46E-05,,0
10.9373,2.59E-05,10.9373,-6.68E-06,10.9373,-2.63E-05,10.9373,2.24E-06,10.9373,5.46E-05,,0
10.93735,2.72E-05,10.93735,-6.68E-06,10.93735,-2.70E-05,10.93735,6.19E-07,10.93735,5.46E-05,,0
10.9374,2.90E-05,10.9374,-5.87E-06,10.9374,-2.79E-05,10.9374,-5.17E-07,10.9374,5.46E-05,,0
10.93745,3.06E-05,10.93745,-5.22E-06,10.93745,-2.91E-05,10.93745,-1.00E-06,10.93745,5.46E-05,,0
10.9375,3.27E-05,10.9375,-5.71E-06,10.9375,-2.99E-05,10.9375,-2.30E-06,10.9375,5.46E-05,,0
10.93755,3.44E-05,10.93755,-5.38E-06,10.93755,-3.04E-05,10.93755,-3.11E-06,10.93755,5.46E-05,,0
10.9376,3.60E-05,10.9376,-5.38E-06,10.9376,-3.18E-05,10.9376,-4.25E-06,10.9376,5.46E-05,,0
10.93765,3.71E-05,10.93765,-5.06E-06,10.93765,-3.23E-05,10.93765,-4.57E-06,10.93765,5.46E-05,,0
10.9377,3.91E-05,10.9377,-5.06E-06,10.9377,-3.31E-05,10.9377,-5.22E-06,10.9377,5.46E-05,,0
10.93775,4.02E-05,10.93775,-4.74E-06,10.93775,-3.39E-05,10.93775,-6.20E-06,10.93775,5.46E-05,,0
10.9378,4.18E-05,10.9378,-4.57E-06,10.9378,-3.48E-05,10.9378,-6.52E-06,10.9378,5.47E-05,,0
10.93785,4.28E-05,10.93785,-4.25E-06,10.93785,-3.52E-05,10.93785,-7.01E-06,10.93785,5.47E-05,,0
10.9379,4.36E-05,10.9379,-3.92E-06,10.9379,-3.64E-05,10.9379,-8.14E-06,10.9379,5.47E-05,,0
10.93795,4.52E-05,10.93795,-3.44E-06,10.93795,-3.72E-05,10.93795,-8.14E-06,10.93795,5.47E-05,,0
10.938,4.57E-05,10.938,-3.44E-06,10.938,-3.80E-05,10.938,-8.63E-06,10.938,5.47E-05,,0
10.93805,4.72E-05,10.93805,-3.44E-06,10.93805,-3.83E-05,10.93805,-9.28E-06,10.93805,5.47E-05,,0
10.9381,4.83E-05,10.9381,-3.44E-06,10.9381,-3.96E-05,10.9381,-9.12E-06,10.9381,5.47E-05,,0
10.93815,4.88E-05,10.93815,-2.95E-06,10.93815,-4.06E-05,10.93815,-1.01E-05,10.93815,5.47E-05,,0
10.9382,4.93E-05,10.9382,-2.63E-06,10.9382,-4.14E-05,10.9382,-1.04E-05,10.9382,5.47E-05,,0
10.93825,5.04E-05,10.93825,-2.46E-06,10.93825,-4.19E-05,10.93825,-1.06E-05,10.93825,5.47E-05,,0
10.9383,5.09E-05,10.9383,-1.49E-06,10.9383,-4.22E-05,10.9383,-1.12E-05,10.9383,5.46E-05,,0
10.93835,5.04E-05,10.93835,-1.33E-06,10.93835,-4.24E-05,10.93835,-1.16E-05,10.93835,5.46E-05,,0
10.9384,5.14E-05,10.9384,-6.79E-07,10.9384,-4.25E-05,10.9384,-1.22E-05,10.9384,5.46E-05,,0
10.93845,5.16E-05,10.93845,1.32E-07,10.93845,-4.34E-05,10.93845,-1.27E-05,10.93845,5.46E-05,,0
10.9385,5.19E-05,10.9385,7.81E-07,10.9385,-4.34E-05,10.9385,-1.35E-05,10.9385,5.46E-05,,0
10.93855,5.19E-05,10.93855,1.27E-06,10.93855,-4.29E-05,10.93855,-1.43E-05,10.93855,5.46E-05,,0
10.9386,5.11E-05,10.9386,1.92E-06,10.9386,-4.30E-05,10.9386,-1.50E-05,10.9386,5.46E-05,,0
10.93865,5.09E-05,10.93865,2.24E-06,10.93865,-4.24E-05,10.93865,-1.64E-05,10.93865,5.46E-05,,0
10.9387,5.12E-05,10.9387,3.21E-06,10.9387,-4.22E-05,10.9387,-1.72E-05,10.9387,5.46E-05,,0
10.93875,5.09E-05,10.93875,4.03E-06,10.93875,-4.12E-05,10.93875,-1.74E-05,10.93875,5.46E-05,,0
10.9388,5.09E-05,10.9388,4.51E-06,10.9388,-4.01E-05,10.9388,-1.84E-05,10.9388,5.46E-05,,0
10.93885,4.99E-05,10.93885,5.16E-06,10.93885,-3.86E-05,10.93885,-1.97E-05,10.93885,5.46E-05,,0
10.9389,4.99E-05,10.9389,6.14E-06,10.9389,-3.72E-05,10.9389,-2.06E-05,10.9389,5.46E-05,,0
10.93895,4.95E-05,10.93895,6.62E-06,10.93895,-3.61E-05,10.93895,-2.24E-05,10.93895,5.46E-05,,0
10.939,4.91E-05,10.939,6.95E-06,10.939,-3.48E-05,10.939,-2.37E-05,10.939,5.46E-05,,0
10.93905,4.90E-05,10.93905,7.60E-06,10.93905,-3.31E-05,10.93905,-2.47E-05,10.93905,5.46E-05,,0
10.9391,4.85E-05,10.9391,8.24E-06,10.9391,-3.13E-05,10.9391,-2.68E-05,10.9391,5.46E-05,,0
10.93915,4.78E-05,10.93915,8.41E-06,10.93915,-3.00E-05,10.93915,-2.79E-05,10.93915,5.46E-05,,0
10.9392,4.75E-05,10.9392,8.57E-06,10.9392,-2.84E-05,10.9392,-2.96E-05,10.9392,5.46E-05,,0
10.93925,4.65E-05,10.93925,9.06E-06,10.93925,-2.63E-05,10.93925,-3.12E-05,10.93925,5.46E-05,,0
10.9393,4.59E-05,10.9393,9.22E-06,10.9393,-2.44E-05,10.9393,-3.22E-05,10.9393,5.46E-05,,0
10.93935,4.57E-05,10.93935,9.38E-06,10.93935,-2.31E-05,10.93935,-3.31E-05,10.93935,5.46E-05,,0
10.9394,4.51E-05,10.9394,9.54E-06,10.9394,-2.18E-05,10.9394,-3.43E-05,10.9394,5.46E-05,,0
10.93945,4.48E-05,10.93945,9.54E-06,10.93945,-2.06E-05,10.93945,-3.54E-05,10.93945,5.46E-05,,0
10.9395,4.39E-05,10.9395,9.54E-06,10.9395,-1.90E-05,10.9395,-3.61E-05,10.9395,5.46E-05,,0
10.93955,4.36E-05,10.93955,9.22E-06,10.93955,-1.80E-05,10.93955,-3.69E-05,10.93955,5.46E-05,,0
10.9396,4.33E-05,10.9396,9.22E-06,10.9396,-1.67E-05,10.9396,-3.77E-05,10.9396,5.46E-05,,0
10.93965,4.31E-05,10.93965,8.73E-06,10.93965,-1.61E-05,10.93965,-3.75E-05,10.93965,5.46E-05,,0
10.9397,4.31E-05,10.9397,8.41E-06,10.9397,-1.46E-05,10.9397,-3.78E-05,10.9397,5.46E-05,,0
10.93975,4.22E-05,10.93975,7.92E-06,10.93975,-1.43E-05,10.93975,-3.73E-05,10.93975,5.46E-05,,0
10.9398,4.18E-05,10.9398,7.60E-06,10.9398,-1.35E-05,10.9398,-3.69E-05,10.9398,5.46E-05,,0
10.93985,4.20E-05,10.93985,6.46E-06,10.93985,-1.27E-05,10.93985,-3.64E-05,10.93985,5.46E-05,,0
10.9399,4.15E-05,10.9399,5.97E-06,10.9399,-1.27E-05,10.9399,-3.52E-05,10.9399,5.46E-05,,0
10.93995,4.09E-05,10.93995,4.68E-06,10.93995,-1.32E-05,10.93995,-3.41E-05,10.93995,5.46E-05,,0
10.94,4.05E-05,10.94,3.70E-06,10.94,-1.28E-05,10.94,-3.26E-05,10.94,5.46E-05,,0
10.94005,4.05E-05,10.94005,2.40E-06,10.94005,-1.35E-05,10.94005,-3.12E-05,10.94005,5.46E-05,,0
10.9401,4.04E-05,10.9401,1.11E-06,10.9401,-1.41E-05,10.9401,-2.97E-05,10.9401,5.46E-05,,0
10.94015,3.97E-05,10.94015,-3.03E-08,10.94015,-1.54E-05,10.94015,-2.78E-05,10.94015,5.46E-05,,0
10.9402,4.00E-05,10.9402,-1.65E-06,10.9402,-1.59E-05,10.9402,-2.55E-05,10.9402,5.46E-05,,0
10.94025,3.97E-05,10.94025,-2.63E-06,10.94025,-1.63E-05,10.94025,-2.34E-05,10.94025,5.46E-05,,0
10.9403,3.96E-05,10.9403,-3.76E-06,10.9403,-1.72E-05,10.9403,-2.10E-05,10.9403,5.46E-05,,0
10.94035,3.97E-05,10.94035,-5.22E-06,10.94035,-1.85E-05,10.94035,-1.89E-05,10.94035,5.46E-05,,0
10.9404,3.97E-05,10.9404,-6.68E-06,10.9404,-1.98E-05,10.9404,-1.63E-05,10.9404,5.46E-05,,0
10.94045,4.00E-05,10.94045,-7.82E-06,10.94045,-2.06E-05,10.94045,-1.43E-05,10.94045,5.46E-05,,0
10.9405,4.00E-05,10.9405,-9.28E-06,10.9405,-2.19E-05,10.9405,-1.16E-05,10.9405,5.46E-05,,0
10.94055,4.05E-05,10.94055,-1.07E-05,10.94055,-2.31E-05,10.94055,-9.44E-06,10.94055,5.46E-05,,0
10.9406,4.07E-05,10.9406,-1.19E-05,10.9406,-2.39E-05,10.9406,-7.49E-06,10.9406,5.45E-05,,0
10.94065,4.17E-05,10.94065,-1.25E-05,10.94065,-2.57E-05,10.94065,-5.06E-06,10.94065,5.45E-05,,0
10.9407,4.25E-05,10.9407,-1.33E-05,10.9407,-2.68E-05,10.9407,-2.30E-06,10.9407,5.45E-05,,0
10.94075,4.26E-05,10.94075,-1.43E-05,10.94075,-2.79E-05,10.94075,-8.42E-07,10.94075,5.45E-05,,0
10.9408,4.35E-05,10.9408,-1.53E-05,10.9408,-2.89E-05,10.9408,1.27E-06,10.9408,5.45E-05,,0
10.94085,4.41E-05,10.94085,-1.64E-05,10.94085,-3.04E-05,10.94085,2.89E-06,10.94085,5.45E-05,,0
10.9409,4.41E-05,10.9409,-1.71E-05,10.9409,-3.12E-05,10.9409,3.86E-06,10.9409,5.45E-05,,0
10.94095,4.48E-05,10.94095,-1.77E-05,10.94095,-3.18E-05,10.94095,4.51E-06,10.94095,5.45E-05,,0
10.941,4.49E-05,10.941,-1.76E-05,10.941,-3.26E-05,10.941,4.35E-06,10.941,5.45E-05,,0
10.94105,4.51E-05,10.94105,-1.74E-05,10.94105,-3.31E-05,10.94105,4.35E-06,10.94105,5.45E-05,,0
10.9411,4.61E-05,10.9411,-1.72E-05,10.9411,-3.28E-05,10.9411,3.21E-06,10.9411,5.45E-05,,0
10.94115,4.64E-05,10.94115,-1.69E-05,10.94115,-3.23E-05,10.94115,7.81E-07,10.94115,5.45E-05,,0
10.9412,4.72E-05,10.9412,-1.53E-05,10.9412,-3.05E-05,10.9412,-2.14E-06,10.9412,5.44E-05,,0
10.94125,4.75E-05,10.94125,-1.32E-05,10.94125,-2.91E-05,10.94125,-6.36E-06,10.94125,5.44E-05,,0
10.9413,4.77E-05,10.9413,-1.12E-05,10.9413,-2.73E-05,10.9413,-1.07E-05,10.9413,5.44E-05,,0
10.94135,4.82E-05,10.94135,-8.31E-06,10.94135,-2.47E-05,10.94135,-1.63E-05,10.94135,5.44E-05,,0
10.9414,4.83E-05,10.9414,-5.06E-06,10.9414,-2.19E-05,10.9414,-2.19E-05,10.9414,5.44E-05,,0
10.94145,4.91E-05,10.94145,-1.33E-06,10.94145,-1.97E-05,10.94145,-2.96E-05,10.94145,5.44E-05,,0
10.9415,5.06E-05,10.9415,3.05E-06,10.9415,-1.67E-05,10.9415,-3.75E-05,10.9415,5.44E-05,,0
10.94155,5.12E-05,10.94155,7.60E-06,10.94155,-1.40E-05,10.94155,-4.56E-05,10.94155,5.44E-05,,0
10.9416,5.17E-05,10.9416,1.30E-05,10.9416,-1.16E-05,10.9416,-5.44E-05,10.9416,5.44E-05,,0
10.94165,5.29E-05,10.94165,1.83E-05,10.94165,-8.95E-06,10.94165,-6.40E-05,10.94165,5.43E-05,,0
10.9417,5.35E-05,10.9417,2.38E-05,10.9417,-6.68E-06,10.9417,-7.26E-05,10.9417,5.43E-05,,0
10.94175,5.48E-05,10.94175,2.95E-05,10.94175,-5.22E-06,10.94175,-8.10E-05,10.94175,5.43E-05,,0
10.9418,5.63E-05,10.9418,3.52E-05,10.9418,-4.41E-06,10.9418,-8.94E-05,10.9418,5.43E-05,,0
10.94185,5.71E-05,10.94185,4.13E-05,10.94185,-2.95E-06,10.94185,-9.74E-05,10.94185,5.43E-05,,0
10.9419,5.89E-05,10.9419,4.77E-05,10.9419,-2.95E-06,10.9419,-0.00010501,10.9419,5.43E-05,,0
10.94195,6.00E-05,10.94195,5.27E-05,10.94195,-2.95E-06,10.94195,-0.0001115,10.94195,5.43E-05,,0
10.942,6.18E-05,10.942,5.74E-05,10.942,-3.76E-06,10.942,-0.000117991,10.942,5.43E-05,,0
10.94205,6.37E-05,10.94205,6.21E-05,10.94205,-5.38E-06,10.94205,-0.00012367,10.94205,5.43E-05,,0
10.9421,6.54E-05,10.9421,6.67E-05,10.9421,-7.49E-06,10.9421,-0.000127077,10.9421,5.43E-05,,0
10.94215,6.76E-05,10.94215,7.02E-05,10.94215,-1.06E-05,10.94215,-0.000129998,10.94215,5.43E-05,,0
10.9422,6.94E-05,10.9422,7.35E-05,10.9422,-1.37E-05,10.9422,-0.000132107,10.9422,5.43E-05,,0
10.94225,7.17E-05,10.94225,7.56E-05,10.94225,-1.71E-05,10.94225,-0.000132431,10.94225,5.43E-05,,0
10.9423,7.33E-05,10.9423,7.72E-05,10.9423,-2.11E-05,10.9423,-0.000132594,10.9423,5.43E-05,,0
10.94235,7.53E-05,10.94235,7.83E-05,10.94235,-2.50E-05,10.94235,-0.000131133,10.94235,5.43E-05,,0
10.9424,7.67E-05,10.9424,7.83E-05,10.9424,-2.92E-05,10.9424,-0.000128862,10.9424,5.43E-05,,0
10.94245,7.85E-05,10.94245,7.79E-05,10.94245,-3.33E-05,10.94245,-0.000125292,10.94245,5.43E-05,,0
10.9425,8.00E-05,10.9425,7.72E-05,10.9425,-3.80E-05,10.9425,-0.000120911,10.9425,5.43E-05,,0
10.94255,8.08E-05,10.94255,7.53E-05,10.94255,-4.25E-05,10.94255,-0.000115232,10.94255,5.43E-05,,0
10.9426,8.21E-05,10.9426,7.27E-05,10.9426,-4.71E-05,10.9426,-0.000109067,10.9426,5.43E-05,,0
10.94265,8.29E-05,10.94265,6.94E-05,10.94265,-5.07E-05,10.94265,-0.000101603,10.94265,5.43E-05,,0
10.9427,8.39E-05,10.9427,6.58E-05,10.9427,-5.49E-05,10.9427,-9.40E-05,10.9427,5.43E-05,,0
10.94275,8.40E-05,10.94275,6.11E-05,10.94275,-5.88E-05,10.94275,-8.59E-05,10.94275,5.43E-05,,0
10.9428,8.45E-05,10.9428,5.59E-05,10.9428,-6.22E-05,10.9428,-7.74E-05,10.9428,5.43E-05,,0
10.94285,8.39E-05,10.94285,5.04E-05,10.94285,-6.49E-05,10.94285,-6.90E-05,10.94285,5.43E-05,,0
10.9429,8.39E-05,10.9429,4.46E-05,10.9429,-6.74E-05,10.9429,-6.01E-05,10.9429,5.43E-05,,0
10.94295,8.34E-05,10.94295,3.83E-05,10.94295,-6.93E-05,10.94295,-5.11E-05,10.94295,5.43E-05,,0
10.943,8.22E-05,10.943,3.21E-05,10.943,-7.04E-05,10.943,-4.21E-05,10.943,5.43E-05,,0
10.94305,8.09E-05,10.94305,2.59E-05,10.94305,-7.14E-05,10.94305,-3.38E-05,10.94305,5.43E-05,,0
10.9431,7.95E-05,10.9431,1.94E-05,10.9431,-7.11E-05,10.9431,-2.47E-05,10.9431,5.42E-05,,0
10.94315,7.74E-05,10.94315,1.23E-05,10.94315,-7.09E-05,10.94315,-1.61E-05,10.94315,5.42E-05,,0
10.9432,7.51E-05,10.9432,5.97E-06,10.9432,-7.06E-05,10.9432,-7.49E-06,10.9432,5.42E-05,,0
10.94325,7.33E-05,10.94325,-1.17E-06,10.94325,-6.92E-05,10.94325,2.94E-07,10.94325,5.42E-05,,0
10.9433,7.12E-05,10.9433,-7.33E-06,10.9433,-6.72E-05,10.9433,8.24E-06,10.9433,5.42E-05,,0
10.94335,6.83E-05,10.94335,-1.41E-05,10.94335,-6.51E-05,10.94335,1.49E-05,10.94335,5.42E-05,,0
10.9434,6.54E-05,10.9434,-2.02E-05,10.9434,-6.23E-05,10.9434,2.12E-05,10.9434,5.42E-05,,0
10.94345,6.20E-05,10.94345,-2.63E-05,10.94345,-5.99E-05,10.94345,2.85E-05,10.94345,5.42E-05,,0
10.9435,5.87E-05,10.9435,-3.20E-05,10.9435,-5.65E-05,10.9435,3.44E-05,10.9435,5.42E-05,,0
10.94355,5.59E-05,10.94355,-3.70E-05,10.94355,-5.34E-05,10.94355,3.92E-05,10.94355,5.42E-05,,0
10.9436,5.25E-05,10.9436,-4.17E-05,10.9436,-4.98E-05,10.9436,4.41E-05,10.9436,5.42E-05,,0
10.94365,4.83E-05,10.94365,-4.59E-05,10.94365,-4.56E-05,10.94365,4.80E-05,10.94365,5.42E-05,,0
10.9437,4.52E-05,10.9437,-4.94E-05,10.9437,-4.14E-05,10.9437,5.04E-05,10.9437,5.42E-05,,0
10.94375,4.15E-05,10.94375,-5.21E-05,10.94375,-3.65E-05,10.94375,5.19E-05,10.94375,5.42E-05,,0
10.9438,3.75E-05,10.9438,-5.41E-05,10.9438,-3.17E-05,10.9438,5.32E-05,10.9438,5.42E-05,,0
10.94385,3.36E-05,10.94385,-5.54E-05,10.94385,-2.68E-05,10.94385,5.34E-05,10.94385,5.42E-05,,0
10.9439,3.03E-05,10.9439,-5.63E-05,10.9439,-2.11E-05,10.9439,5.14E-05,10.9439,5.42E-05,,0
10.94395,2.64E-05,10.94395,-5.60E-05,10.94395,-1.58E-05,10.94395,5.01E-05,10.94395,5.42E-05,,0
10.944,2.25E-05,10.944,-5.55E-05,10.944,-9.93E-06,10.944,4.67E-05,10.944,5.42E-05,,0
10.94405,1.93E-05,10.94405,-5.39E-05,10.94405,-4.90E-06,10.94405,4.28E-05,10.94405,5.42E-05,,0
10.9441,1.57E-05,10.9441,-5.24E-05,10.9441,7.81E-07,10.9441,3.84E-05,10.9441,5.42E-05,,0
10.94415,1.31E-05,10.94415,-5.02E-05,10.94415,6.30E-06,10.94415,3.34E-05,10.94415,5.42E-05,,0
10.9442,9.71E-06,10.9442,-4.68E-05,10.9442,1.10E-05,10.9442,2.77E-05,10.9442,5.42E-05,,0
10.94425,7.60E-06,10.94425,-4.32E-05,10.94425,1.62E-05,10.94425,2.12E-05,10.94425,5.42E-05,,0
10.9443,5.32E-06,10.9443,-3.93E-05,10.9443,2.06E-05,10.9443,1.55E-05,10.9443,5.42E-05,,0
10.94435,3.38E-06,10.94435,-3.51E-05,10.94435,2.45E-05,10.94435,9.06E-06,10.94435,5.42E-05,,0
10.9444,1.75E-06,10.9444,-3.13E-05,10.9444,2.84E-05,10.9444,2.24E-06,10.9444,5.42E-05,,0
10.94445,2.94E-07,10.94445,-2.68E-05,10.94445,3.08E-05,10.94445,-3.60E-06,10.94445,5.42E-05,,0
10.9445,-3.55E-07,10.9445,-2.27E-05,10.9445,3.27E-05,10.9445,-9.44E-06,10.9445,5.42E-05,,0
10.94455,-1.17E-06,10.94455,-1.85E-05,10.94455,3.40E-05,10.94455,-1.48E-05,10.94455,5.42E-05,,0
10.9446,-1.17E-06,10.9446,-1.43E-05,10.9446,3.52E-05,10.9446,-2.02E-05,10.9446,5.42E-05,,0
10.94465,-1.82E-06,10.94465,-9.93E-06,10.94465,3.49E-05,10.94465,-2.45E-05,10.94465,5.42E-05,,0
10.9447,-1.33E-06,10.9447,-6.20E-06,10.9447,3.40E-05,10.9447,-2.86E-05,10.9447,5.43E-05,,0
10.94475,-3.55E-07,10.94475,-3.11E-06,10.94475,3.27E-05,10.94475,-3.13E-05,10.94475,5.43E-05,,0
10.9448,6.19E-07,10.9448,-1.93E-07,10.9448,3.05E-05,10.9448,-3.38E-05,10.9448,5.43E-05,,0
10.94485,2.40E-06,10.94485,2.08E-06,10.94485,2.80E-05,10.94485,-3.46E-05,10.94485,5.43E-05,,0
10.9449,3.70E-06,10.9449,4.51E-06,10.9449,2.50E-05,10.9449,-3.56E-05,10.9449,5.43E-05,,0
10.94495,5.97E-06,10.94495,5.65E-06,10.94495,2.12E-05,10.94495,-3.56E-05,10.94495,5.43E-05,,0
10.945,8.41E-06,10.945,5.65E-06,10.945,1.77E-05,10.945,-3.49E-05,10.945,5.43E-05,,0
10.94505,1.04E-05,10.94505,5.65E-06,10.94505,1.28E-05,10.94505,-3.36E-05,10.94505,5.43E-05,,0
10.9451,1.31E-05,10.9451,5.97E-06,10.9451,8.41E-06,10.9451,-3.13E-05,10.9451,5.43E-05,,0
10.94515,1.57E-05,10.94515,4.51E-06,10.94515,3.70E-06,10.94515,-2.79E-05,10.94515,5.43E-05,,0
10.9452,1.90E-05,10.9452,2.73E-06,10.9452,-8.42E-07,10.9452,-2.45E-05,10.9452,5.43E-05,,0
10.94525,2.19E-05,10.94525,-1.93E-07,10.94525,-6.36E-06,10.94525,-2.05E-05,10.94525,5.43E-05,,0
10.9453,2.54E-05,10.9453,-2.95E-06,10.9453,-1.09E-05,10.9453,-1.56E-05,10.9453,5.43E-05,,0
10.94535,2.84E-05,10.94535,-6.03E-06,10.94535,-1.58E-05,10.94535,-1.01E-05,10.94535,5.44E-05,,0
10.9454,3.14E-05,10.9454,-9.77E-06,10.9454,-2.00E-05,10.9454,-4.09E-06,10.9454,5.44E-05,,0
10.94545,3.37E-05,10.94545,-1.41E-05,10.94545,-2.44E-05,10.94545,1.43E-06,10.94545,5.44E-05,,0
10.9455,3.66E-05,10.9455,-1.90E-05,10.9455,-2.83E-05,10.9455,7.76E-06,10.9455,5.44E-05,,0
10.94555,3.96E-05,10.94555,-2.42E-05,10.94555,-3.28E-05,10.94555,1.38E-05,10.94555,5.44E-05,,0
10.9456,4.26E-05,10.9456,-2.87E-05,10.9456,-3.61E-05,10.9456,2.07E-05,10.9456,5.44E-05,,0
10.94565,4.52E-05,10.94565,-3.43E-05,10.94565,-3.93E-05,10.94565,2.72E-05,10.94565,5.44E-05,,0
10.9457,4.70E-05,10.9457,-4.03E-05,10.9457,-4.14E-05,10.9457,3.42E-05,10.9457,5.44E-05,,0
10.94575,4.88E-05,10.94575,-4.61E-05,10.94575,-4.40E-05,10.94575,3.94E-05,10.94575,5.44E-05,,0
10.9458,5.08E-05,10.9458,-5.18E-05,10.9458,-4.61E-05,10.9458,4.64E-05,10.9458,5.44E-05,,0
10.94585,5.29E-05,10.94585,-5.71E-05,10.94585,-4.72E-05,10.94585,5.25E-05,10.94585,5.44E-05,,0
10.9459,5.40E-05,10.9459,-6.27E-05,10.9459,-4.87E-05,10.9459,5.79E-05,10.9459,5.44E-05,,0
10.94595,5.53E-05,10.94595,-6.83E-05,10.94595,-4.94E-05,10.94595,6.44E-05,10.94595,5.44E-05,,0
10.946,5.63E-05,10.946,-7.40E-05,10.946,-5.02E-05,10.946,6.94E-05,10.946,5.45E-05,,0
10.94605,5.66E-05,10.94605,-7.94E-05,10.94605,-5.10E-05,10.94605,7.56E-05,10.94605,5.45E-05,,0
10.9461,5.69E-05,10.9461,-8.47E-05,10.9461,-5.16E-05,10.9461,8.08E-05,10.9461,5.45E-05,,0
10.94615,5.72E-05,10.94615,-8.98E-05,10.94615,-5.20E-05,10.94615,8.56E-05,10.94615,5.45E-05,,0
10.9462,5.68E-05,10.9462,-9.37E-05,10.9462,-5.21E-05,10.9462,9.05E-05,10.9462,5.45E-05,,0
10.94625,5.64E-05,10.94625,-9.85E-05,10.94625,-5.16E-05,10.94625,9.52E-05,10.94625,5.45E-05,,0
10.9463,5.55E-05,10.9463,-0.00010209,10.9463,-5.18E-05,10.9463,9.94E-05,10.9463,5.45E-05,,0
10.94635,5.47E-05,10.94635,-0.00010501,10.94635,-5.10E-05,10.94635,0.000104138,10.94635,5.45E-05,,0
10.9464,5.34E-05,10.9464,-0.000108093,10.9464,-5.15E-05,10.9464,0.000107708,10.9464,5.45E-05,,0
10.94645,5.27E-05,10.94645,-0.00011004,10.94645,-5.15E-05,10.94645,0.000111764,10.94645,5.45E-05,,0
10.9465,5.03E-05,10.9465,-0.000112474,10.9465,-5.11E-05,10.9465,0.000115334,10.9465,5.45E-05,,0
10.94655,4.85E-05,10.94655,-0.000113934,10.94655,-5.08E-05,10.94655,0.000118092,10.94655,5.45E-05,,0
10.9466,4.64E-05,10.9466,-0.000114908,10.9466,-4.98E-05,10.9466,0.000121337,10.9466,5.45E-05,,0
10.94665,4.39E-05,10.94665,-0.000115719,10.94665,-4.97E-05,10.94665,0.000123447,10.94665,5.45E-05,,0
10.9467,4.13E-05,10.9467,-0.000116044,10.9467,-4.92E-05,10.9467,0.000126205,10.9467,5.45E-05,,0
10.94675,3.91E-05,10.94675,-0.000116368,10.94675,-4.87E-05,10.94675,0.00012799,10.94675,5.44E-05,,0
10.9468,3.57E-05,10.9468,-0.000116044,10.9468,-4.77E-05,10.9468,0.000129937,10.9468,5.44E-05,,0
10.94685,3.29E-05,10.94685,-0.000115232,10.94685,-4.72E-05,10.94685,0.000131073,10.94685,5.44E-05,,0
10.9469,2.95E-05,10.9469,-0.000114259,10.9469,-4.64E-05,10.9469,0.000132209,10.9469,5.44E-05,,0
10.94695,2.64E-05,10.94695,-0.000113123,10.94695,-4.56E-05,10.94695,0.000132533,10.94695,5.44E-05,,0
10.947,2.33E-05,10.947,-0.000111338,10.947,-4.50E-05,10.947,0.000133182,10.947,5.44E-05,,0
10.94705,2.06E-05,10.94705,-0.000108742,10.94705,-4.43E-05,10.94705,0.000133182,10.94705,5.44E-05,,0
10.9471,1.72E-05,10.9471,-0.000106795,10.9471,-4.34E-05,10.9471,0.00013302,10.9471,5.44E-05,,0
10.94715,1.39E-05,10.94715,-0.000104361,10.94715,-4.29E-05,10.94715,0.000132371,10.94715,5.44E-05,,0
10.9472,1.15E-05,10.9472,-0.000101927,10.9472,-4.24E-05,10.9472,0.000132371,10.9472,5.44E-05,,0
10.94725,7.92E-06,10.94725,-9.90E-05,10.94725,-4.08E-05,10.94725,0.000131397,10.94725,5.44E-05,,0
10.9473,5.81E-06,10.9473,-9.59E-05,10.9473,-4.03E-05,10.9473,0.000129937,10.9473,5.44E-05,,0
10.94735,2.73E-06,10.94735,-9.27E-05,10.94735,-3.93E-05,10.94735,0.000128152,10.94735,5.44E-05,,0
10.9474,1.32E-07,10.9474,-8.98E-05,10.9474,-3.90E-05,10.9474,0.000126205,10.9474,5.44E-05,,0
10.94745,-2.63E-06,10.94745,-8.57E-05,10.94745,-3.77E-05,10.94745,0.000124907,10.94745,5.43E-05,,0
10.9475,-5.38E-06,10.9475,-8.26E-05,10.9475,-3.64E-05,10.9475,0.000122636,10.9475,5.43E-05,,0
10.94755,-7.66E-06,10.94755,-7.92E-05,10.94755,-3.54E-05,10.94755,0.000119715,10.94755,5.43E-05,,0
10.9476,-1.04E-05,10.9476,-7.48E-05,10.9476,-3.46E-05,10.9476,0.000116957,10.9476,5.43E-05,,0
10.94765,-1.28E-05,10.94765,-7.09E-05,10.94765,-3.33E-05,10.94765,0.000114685,10.94765,5.43E-05,,0
10.9477,-1.48E-05,10.9477,-6.69E-05,10.9477,-3.23E-05,10.9477,0.000111602,10.9477,5.43E-05,,0
10.94775,-1.74E-05,10.94775,-6.28E-05,10.94775,-3.13E-05,10.94775,0.000108195,10.94775,5.43E-05,,0
10.9478,-1.90E-05,10.9478,-5.88E-05,10.9478,-3.00E-05,10.9478,0.000104625,10.9478,5.43E-05,,0
10.94785,-2.13E-05,10.94785,-5.45E-05,10.94785,-2.86E-05,10.94785,0.000101542,10.94785,5.43E-05,,0
10.9479,-2.36E-05,10.9479,-5.02E-05,10.9479,-2.79E-05,10.9479,9.83E-05,10.9479,5.43E-05,,0
10.94795,-2.55E-05,10.94795,-4.61E-05,10.94795,-2.62E-05,10.94795,9.39E-05,10.94795,5.43E-05,,0
10.948,-2.78E-05,10.948,-4.16E-05,10.948,-2.49E-05,10.948,9.07E-05,10.948,5.43E-05,,0
10.94805,-2.91E-05,10.94805,-3.77E-05,10.94805,-2.31E-05,10.94805,8.58E-05,10.94805,5.43E-05,,0
10.9481,-3.12E-05,10.9481,-3.30E-05,10.9481,-2.16E-05,10.9481,8.24E-05,10.9481,5.43E-05,,0
10.94815,-3.31E-05,10.94815,-2.89E-05,10.94815,-1.93E-05,10.94815,7.75E-05,10.94815,5.43E-05,,0
10.9482,-3.54E-05,10.9482,-2.47E-05,10.9482,-1.77E-05,10.9482,7.36E-05,10.9482,5.43E-05,,0
10.94825,-3.70E-05,10.94825,-1.98E-05,10.94825,-1.61E-05,10.94825,6.94E-05,10.94825,5.43E-05,,0
10.9483,-3.91E-05,10.9483,-1.61E-05,10.9483,-1.40E-05,10.9483,6.54E-05,10.9483,5.43E-05,,0
10.94835,-4.08E-05,10.94835,-1.16E-05,10.94835,-1.16E-05,10.94835,6.11E-05,10.94835,5.43E-05,,0
10.9484,-4.29E-05,10.9484,-7.49E-06,10.9484,-9.28E-06,10.9484,5.66E-05,10.9484,5.43E-05,,0
10.94845,-4.47E-05,10.94845,-3.60E-06,10.94845,-6.85E-06,10.94845,5.22E-05,10.94845,5.43E-05,,0
10.9485,-4.69E-05,10.9485,7.81E-07,10.9485,-3.76E-06,10.9485,4.75E-05,10.9485,5.43E-05,,0
10.94855,-4.81E-05,10.94855,4.35E-06,10.94855,-1.98E-06,10.94855,4.26E-05,10.94855,5.43E-05,,0
10.9486,-5.05E-05,10.9486,8.41E-06,10.9486,4.57E-07,10.9486,3.91E-05,10.9486,5.43E-05,,0
10.94865,-5.21E-05,10.94865,1.20E-05,10.94865,3.21E-06,10.94865,3.52E-05,10.94865,5.43E-05,,0
10.9487,-5.41E-05,10.9487,1.52E-05,10.9487,4.84E-06,10.9487,3.10E-05,10.9487,5.43E-05,,0
10.94875,-5.58E-05,10.94875,1.85E-05,10.94875,8.41E-06,10.94875,2.72E-05,10.94875,5.43E-05,,0
10.9488,-5.76E-05,10.9488,2.09E-05,10.9488,1.13E-05,10.9488,2.33E-05,10.9488,5.43E-05,,0
10.94885,-5.99E-05,10.94885,2.40E-05,10.94885,1.38E-05,10.94885,2.01E-05,10.94885,5.43E-05,,0
10.9489,-6.15E-05,10.9489,2.69E-05,10.9489,1.54E-05,10.9489,1.68E-05,10.9489,5.44E-05,,0
10.94895,-6.38E-05,10.94895,2.89E-05,10.94895,1.80E-05,10.94895,1.36E-05,10.94895,5.44E-05,,0
10.949,-6.57E-05,10.949,3.08E-05,10.949,2.09E-05,10.949,1.07E-05,10.949,5.44E-05,,0
10.94905,-6.72E-05,10.94905,3.27E-05,10.94905,2.32E-05,10.94905,7.76E-06,10.94905,5.44E-05,,0
10.9491,-6.87E-05,10.9491,3.44E-05,10.9491,2.56E-05,10.9491,5.81E-06,10.9491,5.44E-05,,0
10.94915,-7.04E-05,10.94915,3.60E-05,10.94915,2.82E-05,10.94915,3.38E-06,10.94915,5.44E-05,,0
10.9492,-7.22E-05,10.9492,3.76E-05,10.9492,3.05E-05,10.9492,1.43E-06,10.9492,5.44E-05,,0
10.94925,-7.43E-05,10.94925,3.81E-05,10.94925,3.31E-05,10.94925,-1.93E-07,10.94925,5.44E-05,,0
10.9493,-7.53E-05,10.9493,3.94E-05,10.9493,3.55E-05,10.9493,-1.98E-06,10.9493,5.44E-05,,0
10.94935,-7.76E-05,10.94935,4.07E-05,10.94935,3.78E-05,10.94935,-3.60E-06,10.94935,5.44E-05,,0
10.9494,-7.84E-05,10.9494,4.17E-05,10.9494,3.99E-05,10.9494,-4.90E-06,10.9494,5.44E-05,,0
10.94945,-7.97E-05,10.94945,4.18E-05,10.94945,4.22E-05,10.94945,-6.03E-06,10.94945,5.44E-05,,0
10.9495,-8.15E-05,10.9495,4.25E-05,10.9495,4.46E-05,10.9495,-7.17E-06,10.9495,5.44E-05,,0
10.94955,-8.31E-05,10.94955,4.25E-05,10.94955,4.65E-05,10.94955,-8.63E-06,10.94955,5.44E-05,,0
10.9496,-8.41E-05,10.9496,4.28E-05,10.9496,4.82E-05,10.9496,-9.93E-06,10.9496,5.45E-05,,0
10.94965,-8.60E-05,10.94965,4.31E-05,10.94965,5.09E-05,10.94965,-1.04E-05,10.94965,5.45E-05,,0
10.9497,-8.70E-05,10.9497,4.35E-05,10.9497,5.29E-05,10.9497,-1.16E-05,10.9497,5.45E-05,,0
10.94975,-8.85E-05,10.94975,4.36E-05,10.94975,5.45E-05,10.94975,-1.20E-05,10.94975,5.45E-05,,0
10.9498,-8.94E-05,10.9498,4.38E-05,10.9498,5.61E-05,10.9498,-1.30E-05,10.9498,5.45E-05,,0
10.94985,-9.09E-05,10.94985,4.38E-05,10.94985,5.81E-05,10.94985,-1.43E-05,10.94985,5.45E-05,,0
10.9499,-9.22E-05,10.9499,4.49E-05,10.9499,5.97E-05,10.9499,-1.56E-05,10.9499,5.45E-05,,0
10.94995,-9.35E-05,10.94995,4.51E-05,10.94995,6.10E-05,10.94995,-1.61E-05,10.94995,5.45E-05,,0
10.95,-9.48E-05,10.95,4.59E-05,10.95,6.26E-05,10.95,-1.71E-05,10.95,5.45E-05,,0
10.95005,-9.61E-05,10.95005,4.70E-05,10.95005,6.41E-05,10.95005,-1.80E-05,10.95005,5.45E-05,,0
10.9501,-9.66E-05,10.9501,4.80E-05,10.9501,6.50E-05,10.9501,-1.92E-05,10.9501,5.45E-05,,0
10.95015,-9.84E-05,10.95015,4.88E-05,10.95015,6.62E-05,10.95015,-1.97E-05,10.95015,5.45E-05,,0
10.9502,-9.95E-05,10.9502,4.95E-05,10.9502,6.73E-05,10.9502,-2.10E-05,10.9502,5.45E-05,,0
10.95025,-0.000100467,10.95025,5.08E-05,10.95025,6.86E-05,10.95025,-2.14E-05,10.95025,5.46E-05,,0
10.9503,-0.000101765,10.9503,5.21E-05,10.9503,6.89E-05,10.9503,-2.31E-05,10.9503,5.46E-05,,0
10.95035,-0.000102901,10.95035,5.34E-05,10.95035,6.99E-05,10.95035,-2.37E-05,10.95035,5.46E-05,,0
10.9504,-0.000104199,10.9504,5.43E-05,10.9504,7.02E-05,10.9504,-2.45E-05,10.9504,5.46E-05,,0
10.95045,-0.000105172,10.95045,5.50E-05,10.95045,7.10E-05,10.95045,-2.53E-05,10.95045,5.46E-05,,0
10.9505,-0.000106146,10.9505,5.66E-05,10.9505,7.20E-05,10.9505,-2.63E-05,10.9505,5.46E-05,,0
10.95055,-0.000106633,10.95055,5.72E-05,10.95055,7.25E-05,10.95055,-2.70E-05,10.95055,5.46E-05,,0
10.9506,-0.000107931,10.9506,5.84E-05,10.9506,7.27E-05,10.9506,-2.81E-05,10.9506,5.46E-05,,0
10.95065,-0.000108742,10.95065,5.94E-05,10.95065,7.30E-05,10.95065,-2.89E-05,10.95065,5.46E-05,,0
10.9507,-0.000109716,10.9507,5.97E-05,10.9507,7.36E-05,10.9507,-2.94E-05,10.9507,5.46E-05,,0
10.95075,-0.000110689,10.95075,6.03E-05,10.95075,7.41E-05,10.95075,-2.99E-05,10.95075,5.46E-05,,0
10.9508,-0.0001115,10.9508,6.07E-05,10.9508,7.48E-05,10.9508,-2.97E-05,10.9508,5.46E-05,,0
10.95085,-0.000111825,10.95085,6.08E-05,10.95085,7.48E-05,10.95085,-3.00E-05,10.95085,5.46E-05,,0
10.9509,-0.000111987,10.9509,6.11E-05,10.9509,7.51E-05,10.9509,-3.02E-05,10.9509,5.46E-05,,0
10.95095,-0.000112636,10.95095,6.11E-05,10.95095,7.54E-05,10.95095,-2.99E-05,10.95095,5.46E-05,,0
10.951,-0.000113285,10.951,6.11E-05,10.951,7.56E-05,10.951,-3.00E-05,10.951,5.47E-05,,0
10.95105,-0.000113447,10.95105,6.15E-05,10.95105,7.61E-05,10.95105,-2.94E-05,10.95105,5.47E-05,,0
10.9511,-0.00011361,10.9511,6.08E-05,10.9511,7.61E-05,10.9511,-2.92E-05,10.9511,5.47E-05,,0
10.95115,-0.000113934,10.95115,6.00E-05,10.95115,7.61E-05,10.95115,-2.87E-05,10.95115,5.47E-05,,0
10.9512,-0.000114096,10.9512,5.95E-05,10.9512,7.57E-05,10.9512,-2.78E-05,10.9512,5.47E-05,,0
10.95125,-0.000113934,10.95125,5.89E-05,10.95125,7.59E-05,10.95125,-2.70E-05,10.95125,5.47E-05,,0
10.9513,-0.000114096,10.9513,5.77E-05,10.9513,7.59E-05,10.9513,-2.73E-05,10.9513,5.48E-05,,0
10.95135,-0.00011361,10.95135,5.68E-05,10.95135,7.56E-05,10.95135,-2.57E-05,10.95135,5.48E-05,,0
10.9514,-0.000113447,10.9514,5.61E-05,10.9514,7.49E-05,10.9514,-2.47E-05,10.9514,5.48E-05,,0
10.95145,-0.000113285,10.95145,5.53E-05,10.95145,7.54E-05,10.95145,-2.39E-05,10.95145,5.48E-05,,0
10.9515,-0.000112474,10.9515,5.43E-05,10.9515,7.51E-05,10.9515,-2.24E-05,10.9515,5.49E-05,,0
10.95155,-0.000112149,10.95155,5.32E-05,10.95155,7.48E-05,10.95155,-2.19E-05,10.95155,5.49E-05,,0
10.9516,-0.000111338,10.9516,5.17E-05,10.9516,7.43E-05,10.9516,-2.10E-05,10.9516,5.49E-05,,0
10.95165,-0.000110689,10.95165,5.11E-05,10.95165,7.36E-05,10.95165,-2.02E-05,10.95165,5.50E-05,,0
10.9517,-0.000110202,10.9517,4.95E-05,10.9517,7.30E-05,10.9517,-1.92E-05,10.9517,5.50E-05,,0
10.95175,-0.000109067,10.95175,4.83E-05,10.95175,7.23E-05,10.95175,-1.80E-05,10.95175,5.50E-05,,0
10.9518,-0.000108093,10.9518,4.72E-05,10.9518,7.22E-05,10.9518,-1.76E-05,10.9518,5.51E-05,,0
10.95185,-0.000107282,10.95185,4.59E-05,10.95185,7.22E-05,10.95185,-1.74E-05,10.95185,5.51E-05,,0
10.9519,-0.000105821,10.9519,4.52E-05,10.9519,7.18E-05,10.9519,-1.66E-05,10.9519,5.51E-05,,0
10.95195,-0.000104686,10.95195,4.39E-05,10.95195,7.12E-05,10.95195,-1.67E-05,10.95195,5.51E-05,,0
10.952,-0.000103712,10.952,4.28E-05,10.952,7.07E-05,10.952,-1.61E-05,10.952,5.52E-05,,0
10.95205,-0.00010209,10.95205,4.20E-05,10.95205,7.04E-05,10.95205,-1.59E-05,10.95205,5.52E-05,,0
10.9521,-0.000100629,10.9521,4.12E-05,10.9521,6.96E-05,10.9521,-1.59E-05,10.9521,5.52E-05,,0
10.95215,-9.90E-05,10.95215,4.05E-05,10.95215,6.93E-05,10.95215,-1.64E-05,10.95215,5.52E-05,,0
10.9522,-9.71E-05,10.9522,3.94E-05,10.9522,6.93E-05,10.9522,-1.69E-05,10.9522,5.53E-05,,0
10.95225,-9.54E-05,10.95225,3.91E-05,10.95225,6.88E-05,10.95225,-1.72E-05,10.95225,5.53E-05,,0
10.9523,-9.38E-05,10.9523,3.89E-05,10.9523,6.88E-05,10.9523,-1.80E-05,10.9523,5.53E-05,,0
10.95235,-9.19E-05,10.95235,3.78E-05,10.95235,6.80E-05,10.95235,-1.82E-05,10.95235,5.53E-05,,0
10.9524,-8.94E-05,10.9524,3.70E-05,10.9524,6.70E-05,10.9524,-1.97E-05,10.9524,5.53E-05,,0
10.95245,-8.78E-05,10.95245,3.65E-05,10.95245,6.67E-05,10.95245,-2.03E-05,10.95245,5.53E-05,,0
10.9525,-8.64E-05,10.9525,3.62E-05,10.9525,6.57E-05,10.9525,-2.11E-05,10.9525,5.53E-05,,0
10.95255,-8.44E-05,10.95255,3.53E-05,10.95255,6.47E-05,10.95255,-2.27E-05,10.95255,5.53E-05,,0
10.9526,-8.21E-05,10.9526,3.45E-05,10.9526,6.45E-05,10.9526,-2.44E-05,10.9526,5.53E-05,,0
10.95265,-8.05E-05,10.95265,3.40E-05,10.95265,6.37E-05,10.95265,-2.50E-05,10.95265,5.53E-05,,0
10.9527,-7.84E-05,10.9527,3.39E-05,10.9527,6.32E-05,10.9527,-2.57E-05,10.9527,5.53E-05,,0
10.95275,-7.65E-05,10.95275,3.29E-05,10.95275,6.26E-05,10.95275,-2.68E-05,10.95275,5.53E-05,,0
10.9528,-7.45E-05,10.9528,3.26E-05,10.9528,6.18E-05,10.9528,-2.73E-05,10.9528,5.53E-05,,0
10.95285,-7.27E-05,10.95285,3.26E-05,10.95285,6.08E-05,10.95285,-2.76E-05,10.95285,5.53E-05,,0
10.9529,-7.08E-05,10.9529,3.23E-05,10.9529,6.03E-05,10.9529,-2.83E-05,10.9529,5.53E-05,,0
10.95295,-6.90E-05,10.95295,3.18E-05,10.95295,5.97E-05,10.95295,-2.84E-05,10.95295,5.53E-05,,0
10.953,-6.72E-05,10.953,3.13E-05,10.953,5.89E-05,10.953,-2.89E-05,10.953,5.53E-05,,0
10.95305,-6.59E-05,10.95305,3.13E-05,10.95305,5.85E-05,10.95305,-2.92E-05,10.95305,5.53E-05,,0
10.9531,-6.48E-05,10.9531,2.97E-05,10.9531,5.81E-05,10.9531,-2.94E-05,10.9531,5.53E-05,,0
10.95315,-6.23E-05,10.95315,2.90E-05,10.95315,5.69E-05,10.95315,-2.97E-05,10.95315,5.53E-05,,0
10.9532,-6.18E-05,10.9532,2.85E-05,10.9532,5.59E-05,10.9532,-3.00E-05,10.9532,5.53E-05,,0
10.95325,-6.01E-05,10.95325,2.69E-05,10.95325,5.56E-05,10.95325,-2.94E-05,10.95325,5.53E-05,,0
10.9533,-5.91E-05,10.9533,2.69E-05,10.9533,5.48E-05,10.9533,-2.91E-05,10.9533,5.53E-05,,0
10.95335,-5.80E-05,10.95335,2.54E-05,10.95335,5.40E-05,10.95335,-2.96E-05,10.95335,5.53E-05,,0
10.9534,-5.70E-05,10.9534,2.53E-05,10.9534,5.45E-05,10.9534,-2.92E-05,10.9534,5.53E-05,,0
10.95345,-5.62E-05,10.95345,2.41E-05,10.95345,5.37E-05,10.95345,-2.87E-05,10.95345,5.53E-05,,0
10.9535,-5.50E-05,10.9535,2.33E-05,10.9535,5.32E-05,10.9535,-2.79E-05,10.9535,5.53E-05,,0
10.95355,-5.39E-05,10.95355,2.30E-05,10.95355,5.32E-05,10.95355,-2.79E-05,10.95355,5.53E-05,,0
10.9536,-5.41E-05,10.9536,2.24E-05,10.9536,5.29E-05,10.9536,-2.79E-05,10.9536,5.53E-05,,0
10.95365,-5.33E-05,10.95365,2.15E-05,10.95365,5.27E-05,10.95365,-2.78E-05,10.95365,5.53E-05,,0
10.9537,-5.26E-05,10.9537,2.11E-05,10.9537,5.27E-05,10.9537,-2.75E-05,10.9537,5.53E-05,,0
10.95375,-5.23E-05,10.95375,2.04E-05,10.95375,5.25E-05,10.95375,-2.70E-05,10.95375,5.53E-05,,0
10.9538,-5.11E-05,10.9538,1.98E-05,10.9538,5.24E-05,10.9538,-2.71E-05,10.9538,5.53E-05,,0
10.95385,-5.08E-05,10.95385,1.98E-05,10.95385,5.19E-05,10.95385,-2.76E-05,10.95385,5.53E-05,,0
10.9539,-5.02E-05,10.9539,1.96E-05,10.9539,5.16E-05,10.9539,-2.71E-05,10.9539,5.53E-05,,0
10.95395,-4.87E-05,10.95395,1.98E-05,10.95395,5.14E-05,10.95395,-2.79E-05,10.95395,5.53E-05,,0
10.954,-4.82E-05,10.954,1.94E-05,10.954,5.04E-05,10.954,-2.86E-05,10.954,5.53E-05,,0
10.95405,-4.68E-05,10.95405,1.94E-05,10.95405,5.03E-05,10.95405,-2.83E-05,10.95405,5.53E-05,,0
10.9541,-4.56E-05,10.9541,1.96E-05,10.9541,4.93E-05,10.9541,-2.89E-05,10.9541,5.53E-05,,0
10.95415,-4.50E-05,10.95415,1.96E-05,10.95415,4.91E-05,10.95415,-2.86E-05,10.95415,5.53E-05,,0
10.9542,-4.37E-05,10.9542,2.01E-05,10.9542,4.77E-05,10.9542,-2.87E-05,10.9542,5.53E-05,,0
10.95425,-4.22E-05,10.95425,2.06E-05,10.95425,4.62E-05,10.95425,-2.92E-05,10.95425,5.53E-05,,0
10.9543,-4.08E-05,10.9543,2.04E-05,10.9543,4.49E-05,10.9543,-3.04E-05,10.9543,5.53E-05,,0
10.95435,-3.90E-05,10.95435,2.01E-05,10.95435,4.36E-05,10.95435,-3.07E-05,10.95435,5.53E-05,,0
10.9544,-3.75E-05,10.9544,2.06E-05,10.9544,4.23E-05,10.9544,-3.13E-05,10.9544,5.53E-05,,0
10.95445,-3.57E-05,10.95445,2.01E-05,10.95445,4.10E-05,10.95445,-3.17E-05,10.95445,5.53E-05,,0
10.9545,-3.25E-05,10.9545,1.99E-05,10.9545,3.96E-05,10.9545,-3.20E-05,10.9545,5.53E-05,,0
10.95455,-3.05E-05,10.95455,1.99E-05,10.95455,3.75E-05,10.95455,-3.26E-05,10.95455,5.53E-05,,0
10.9546,-2.84E-05,10.9546,1.94E-05,10.9546,3.58E-05,10.9546,-3.26E-05,10.9546,5.53E-05,,0
10.95465,-2.63E-05,10.95465,1.90E-05,10.95465,3.44E-05,10.95465,-3.33E-05,10.95465,5.53E-05,,0
10.9547,-2.37E-05,10.9547,1.81E-05,10.9547,3.26E-05,10.9547,-3.35E-05,10.9547,5.53E-05,,0
10.95475,-2.16E-05,10.95475,1.72E-05,10.95475,3.14E-05,10.95475,-3.41E-05,10.95475,5.53E-05,,0
10.9548,-1.92E-05,10.9548,1.62E-05,10.9548,2.97E-05,10.9548,-3.43E-05,10.9548,5.53E-05,,0
10.95485,-1.71E-05,10.95485,1.54E-05,10.95485,2.80E-05,10.95485,-3.41E-05,10.95485,5.53E-05,,0
10.9549,-1.41E-05,10.9549,1.47E-05,10.9549,2.66E-05,10.9549,-3.38E-05,10.9549,5.53E-05,,0
10.95495,-1.20E-05,10.95495,1.38E-05,10.95495,2.51E-05,10.95495,-3.39E-05,10.95495,5.53E-05,,0
10.955,-9.77E-06,10.955,1.26E-05,10.955,2.37E-05,10.955,-3.41E-05,10.955,5.53E-05,,0
10.95505,-7.98E-06,10.95505,1.23E-05,10.95505,2.25E-05,10.95505,-3.30E-05,10.95505,5.53E-05,,0
10.9551,-5.87E-06,10.9551,1.07E-05,10.9551,2.09E-05,10.9551,-3.33E-05,10.9551,5.53E-05,,0
10.95515,-4.25E-06,10.95515,1.02E-05,10.95515,1.98E-05,10.95515,-3.28E-05,10.95515,5.53E-05,,0
10.9552,-2.79E-06,10.9552,9.06E-06,10.9552,1.93E-05,10.9552,-3.26E-05,10.9552,5.53E-05,,0
10.95525,-1.17E-06,10.95525,8.24E-06,10.95525,1.80E-05,10.95525,-3.23E-05,10.95525,5.53E-05,,0
10.9553,-3.03E-08,10.9553,8.08E-06,10.9553,1.68E-05,10.9553,-3.22E-05,10.9553,5.53E-05,,0
10.95535,1.27E-06,10.95535,7.76E-06,10.95535,1.62E-05,10.95535,-3.17E-05,10.95535,5.53E-05,,0
10.9554,2.57E-06,10.9554,7.27E-06,10.9554,1.54E-05,10.9554,-3.12E-05,10.9554,5.53E-05,,0
10.95545,3.38E-06,10.95545,7.43E-06,10.95545,1.44E-05,10.95545,-3.10E-05,10.95545,5.53E-05,,0
10.9555,3.70E-06,10.9555,6.95E-06,10.9555,1.34E-05,10.9555,-3.17E-05,10.9555,5.53E-05,,0
10.95555,4.51E-06,10.95555,6.95E-06,10.95555,1.30E-05,10.95555,-3.13E-05,10.95555,5.53E-05,,0
10.9556,5.49E-06,10.9556,7.27E-06,10.9556,1.33E-05,10.9556,-3.13E-05,10.9556,5.53E-05,,0
10.95565,5.32E-06,10.95565,7.76E-06,10.95565,1.25E-05,10.95565,-3.17E-05,10.95565,5.53E-05,,0
10.9557,5.65E-06,10.9557,7.60E-06,10.9557,1.18E-05,10.9557,-3.20E-05,10.9557,5.53E-05,,0
10.95575,6.46E-06,10.95575,7.60E-06,10.95575,1.15E-05,10.95575,-3.23E-05,10.95575,5.53E-05,,0
10.9558,6.46E-06,10.9558,8.41E-06,10.9558,1.17E-05,10.9558,-3.28E-05,10.9558,5.53E-05,,0
10.95585,6.78E-06,10.95585,8.41E-06,10.95585,1.13E-05,10.95585,-3.38E-05,10.95585,5.53E-05,,0
10.9559,7.27E-06,10.9559,8.89E-06,10.9559,1.10E-05,10.9559,-3.43E-05,10.9559,5.53E-05,,0
10.95595,7.60E-06,10.95595,9.38E-06,10.95595,1.12E-05,10.95595,-3.48E-05,10.95595,5.53E-05,,0
10.956,7.92E-06,10.956,1.02E-05,10.956,1.08E-05,10.956,-3.56E-05,10.956,5.52E-05,,0
10.95605,8.73E-06,10.95605,1.08E-05,10.95605,1.02E-05,10.95605,-3.64E-05,10.95605,5.52E-05,,0
10.9561,9.38E-06,10.9561,1.10E-05,10.9561,1.04E-05,10.9561,-3.75E-05,10.9561,5.52E-05,,0
10.95615,1.04E-05,10.95615,1.12E-05,10.95615,9.87E-06,10.95615,-3.82E-05,10.95615,5.52E-05,,0
10.9562,1.08E-05,10.9562,1.10E-05,10.9562,9.22E-06,10.9562,-3.88E-05,10.9562,5.52E-05,,0
10.95625,1.13E-05,10.95625,1.13E-05,10.95625,8.41E-06,10.95625,-3.93E-05,10.95625,5.52E-05,,0
10.9563,1.25E-05,10.9563,1.15E-05,10.9563,7.92E-06,10.9563,-3.95E-05,10.9563,5.52E-05,,0
10.95635,1.33E-05,10.95635,1.13E-05,10.95635,7.43E-06,10.95635,-3.96E-05,10.95635,5.52E-05,,0
10.9564,1.39E-05,10.9564,1.15E-05,10.9564,6.62E-06,10.9564,-4.03E-05,10.9564,5.52E-05,,0
10.95645,1.46E-05,10.95645,1.12E-05,10.95645,5.81E-06,10.95645,-4.01E-05,10.95645,5.52E-05,,0
10.9565,1.55E-05,10.9565,1.20E-05,10.9565,4.84E-06,10.9565,-4.01E-05,10.9565,5.52E-05,,0
10.95655,1.67E-05,10.95655,1.13E-05,10.95655,4.19E-06,10.95655,-3.99E-05,10.95655,5.52E-05,,0
10.9566,1.77E-05,10.9566,1.13E-05,10.9566,3.54E-06,10.9566,-3.91E-05,10.9566,5.52E-05,,0
10.95665,1.81E-05,10.95665,1.12E-05,10.95665,1.59E-06,10.95665,-3.88E-05,10.95665,5.52E-05,,0
10.9567,1.93E-05,10.9567,1.10E-05,10.9567,7.81E-07,10.9567,-3.80E-05,10.9567,5.52E-05,,0
10.95675,1.96E-05,10.95675,1.10E-05,10.95675,-3.55E-07,10.95675,-3.69E-05,10.95675,5.52E-05,,0
10.9568,1.99E-05,10.9568,1.10E-05,10.9568,-1.49E-06,10.9568,-3.62E-05,10.9568,5.52E-05,,0
10.95685,2.09E-05,10.95685,1.13E-05,10.95685,-2.95E-06,10.95685,-3.56E-05,10.95685,5.51E-05,,0
10.9569,2.15E-05,10.9569,1.10E-05,10.9569,-3.44E-06,10.9569,-3.44E-05,10.9569,5.51E-05,,0
10.95695,2.14E-05,10.95695,1.12E-05,10.95695,-4.25E-06,10.95695,-3.43E-05,10.95695,5.51E-05,,0
10.957,2.17E-05,10.957,1.15E-05,10.957,-5.55E-06,10.957,-3.36E-05,10.957,5.51E-05,,0
10.95705,2.19E-05,10.95705,1.17E-05,10.95705,-5.87E-06,10.95705,-3.33E-05,10.95705,5.51E-05,,0
10.9571,2.20E-05,10.9571,1.23E-05,10.9571,-6.68E-06,10.9571,-3.36E-05,10.9571,5.51E-05,,0
10.95715,2.19E-05,10.95715,1.36E-05,10.95715,-6.68E-06,10.95715,-3.39E-05,10.95715,5.51E-05,,0
10.9572,2.12E-05,10.9572,1.42E-05,10.9572,-6.85E-06,10.9572,-3.48E-05,10.9572,5.51E-05,,0
10.95725,2.12E-05,10.95725,1.54E-05,10.95725,-6.52E-06,10.95725,-3.52E-05,10.95725,5.51E-05,,0
10.9573,2.09E-05,10.9573,1.72E-05,10.9573,-6.03E-06,10.9573,-3.70E-05,10.9573,5.51E-05,,0
10.95735,2.09E-05,10.95735,1.85E-05,10.95735,-5.55E-06,10.95735,-3.90E-05,10.95735,5.51E-05,,0
10.9574,2.04E-05,10.9574,2.01E-05,10.9574,-5.06E-06,10.9574,-4.08E-05,10.9574,5.51E-05,,0
10.95745,2.04E-05,10.95745,2.17E-05,10.95745,-5.06E-06,10.95745,-4.35E-05,10.95745,5.51E-05,,0
10.9575,2.01E-05,10.9575,2.41E-05,10.9575,-3.92E-06,10.9575,-4.63E-05,10.9575,5.51E-05,,0
10.95755,2.01E-05,10.95755,2.58E-05,10.95755,-3.11E-06,10.95755,-4.92E-05,10.95755,5.51E-05,,0
10.9576,1.99E-05,10.9576,2.79E-05,10.9576,-2.95E-06,10.9576,-5.23E-05,10.9576,5.51E-05,,0
10.95765,1.99E-05,10.95765,3.01E-05,10.95765,-1.82E-06,10.95765,-5.58E-05,10.95765,5.51E-05,,0
10.9577,2.01E-05,10.9577,3.29E-05,10.9577,-1.00E-06,10.9577,-5.96E-05,10.9577,5.51E-05,,0
10.95775,2.03E-05,10.95775,3.50E-05,10.95775,1.32E-07,10.95775,-6.25E-05,10.95775,5.51E-05,,0
10.9578,2.07E-05,10.9578,3.76E-05,10.9578,1.59E-06,10.9578,-6.57E-05,10.9578,5.51E-05,,0
10.95785,2.14E-05,10.95785,4.00E-05,10.95785,2.24E-06,10.95785,-6.98E-05,10.95785,5.51E-05,,0
10.9579,2.14E-05,10.9579,4.17E-05,10.9579,3.38E-06,10.9579,-7.39E-05,10.9579,5.51E-05,,0
10.95795,2.19E-05,10.95795,4.46E-05,10.95795,4.84E-06,10.95795,-7.76E-05,10.95795,5.51E-05,,0
10.958,2.22E-05,10.958,4.67E-05,10.958,4.84E-06,10.958,-8.10E-05,10.958,5.51E-05,,0
10.95805,2.28E-05,10.95805,4.88E-05,10.95805,6.46E-06,10.95805,-8.46E-05,10.95805,5.51E-05,,0
10.9581,2.25E-05,10.9581,5.08E-05,10.9581,7.11E-06,10.9581,-8.78E-05,10.9581,5.51E-05,,0
10.95815,2.33E-05,10.95815,5.27E-05,10.95815,8.24E-06,10.95815,-9.04E-05,10.95815,5.51E-05,,0
10.9582,2.35E-05,10.9582,5.37E-05,10.9582,8.73E-06,10.9582,-9.35E-05,10.9582,5.51E-05,,0
10.95825,2.37E-05,10.95825,5.58E-05,10.95825,1.00E-05,10.95825,-9.62E-05,10.95825,5.51E-05,,0
10.9583,2.32E-05,10.9583,5.72E-05,10.9583,1.15E-05,10.9583,-9.80E-05,10.9583,5.51E-05,,0
10.95835,2.28E-05,10.95835,5.79E-05,10.95835,1.23E-05,10.95835,-0.000100142,10.95835,5.51E-05,,0
10.9584,2.30E-05,10.9584,5.87E-05,10.9584,1.30E-05,10.9584,-0.000101278,10.9584,5.51E-05,,0
10.95845,2.25E-05,10.95845,5.95E-05,10.95845,1.38E-05,10.95845,-0.000102576,10.95845,5.51E-05,,0
10.9585,2.27E-05,10.9585,5.98E-05,10.9585,1.38E-05,10.9585,-0.000102901,10.9585,5.51E-05,,0
10.95855,2.22E-05,10.95855,6.00E-05,10.95855,1.39E-05,10.95855,-0.000103388,10.95855,5.51E-05,,0
10.9586,2.24E-05,10.9586,6.03E-05,10.9586,1.39E-05,10.9586,-0.000103225,10.9586,5.51E-05,,0
10.95865,2.24E-05,10.95865,5.95E-05,10.95865,1.36E-05,10.95865,-0.000102739,10.95865,5.51E-05,,0
10.9587,2.24E-05,10.9587,5.95E-05,10.9587,1.31E-05,10.9587,-0.000100791,10.9587,5.51E-05,,0
10.95875,2.19E-05,10.95875,5.97E-05,10.95875,1.23E-05,10.95875,-9.92E-05,10.95875,5.51E-05,,0
10.9588,2.20E-05,10.9588,5.94E-05,10.9588,1.07E-05,10.9588,-9.75E-05,10.9588,5.51E-05,,0
10.95885,2.24E-05,10.95885,5.87E-05,10.95885,8.24E-06,10.95885,-9.54E-05,10.95885,5.51E-05,,0
10.9589,2.28E-05,10.9589,5.79E-05,10.9589,6.30E-06,10.9589,-9.35E-05,10.9589,5.51E-05,,0
10.95895,2.35E-05,10.95895,5.79E-05,10.95895,3.54E-06,10.95895,-8.99E-05,10.95895,5.51E-05,,0
10.959,2.38E-05,10.959,5.69E-05,10.959,2.94E-07,10.959,-8.68E-05,10.959,5.51E-05,,0
10.95905,2.51E-05,10.95905,5.59E-05,10.95905,-3.11E-06,10.95905,-8.31E-05,10.95905,5.51E-05,,0
10.9591,2.59E-05,10.9591,5.50E-05,10.9591,-7.17E-06,10.9591,-7.99E-05,10.9591,5.51E-05,,0
10.95915,2.77E-05,10.95915,5.43E-05,10.95915,-1.17E-05,10.95915,-7.61E-05,10.95915,5.51E-05,,0
10.9592,2.93E-05,10.9592,5.34E-05,10.9592,-1.64E-05,10.9592,-7.26E-05,10.9592,5.51E-05,,0
10.95925,3.13E-05,10.95925,5.24E-05,10.95925,-2.16E-05,10.95925,-6.85E-05,10.95925,5.51E-05,,0
10.9593,3.29E-05,10.9593,5.09E-05,10.9593,-2.70E-05,10.9593,-6.44E-05,10.9593,5.51E-05,,0
10.95935,3.57E-05,10.95935,5.03E-05,10.95935,-3.36E-05,10.95935,-6.06E-05,10.95935,5.51E-05,,0
10.9594,3.79E-05,10.9594,4.86E-05,10.9594,-3.91E-05,10.9594,-5.58E-05,10.9594,5.51E-05,,0
10.95945,4.07E-05,10.95945,4.75E-05,10.95945,-4.45E-05,10.95945,-5.10E-05,10.95945,5.51E-05,,0
10.9595,4.36E-05,10.9595,4.65E-05,10.9595,-5.03E-05,10.9595,-4.61E-05,10.9595,5.52E-05,,0
10.95955,4.70E-05,10.95955,4.52E-05,10.95955,-5.65E-05,10.95955,-4.06E-05,10.95955,5.52E-05,,0
10.9596,4.96E-05,10.9596,4.33E-05,10.9596,-6.17E-05,10.9596,-3.65E-05,10.9596,5.52E-05,,0
10.95965,5.22E-05,10.95965,4.20E-05,10.95965,-6.70E-05,10.95965,-3.20E-05,10.95965,5.52E-05,,0
10.9597,5.51E-05,10.9597,4.00E-05,10.9597,-7.26E-05,10.9597,-2.81E-05,10.9597,5.52E-05,,0
10.95975,5.82E-05,10.95975,3.78E-05,10.95975,-7.69E-05,10.95975,-2.44E-05,10.95975,5.52E-05,,0
10.9598,6.08E-05,10.9598,3.65E-05,10.9598,-8.18E-05,10.9598,-1.95E-05,10.9598,5.52E-05,,0
10.95985,6.36E-05,10.95985,3.45E-05,10.95985,-8.57E-05,10.95985,-1.56E-05,10.95985,5.52E-05,,0
10.9599,6.58E-05,10.9599,3.21E-05,10.9599,-8.98E-05,10.9599,-1.22E-05,10.9599,5.52E-05,,0
10.95995,6.76E-05,10.95995,2.97E-05,10.95995,-9.20E-05,10.95995,-8.95E-06,10.95995,5.52E-05,,0
10.96,6.97E-05,10.96,2.74E-05,10.96,-9.38E-05,10.96,-6.20E-06,10.96,5.52E-05,,0
10.96005,7.18E-05,10.96005,2.50E-05,10.96005,-9.59E-05,10.96005,-3.28E-06,10.96005,5.52E-05,,0
10.9601,7.33E-05,10.9601,2.22E-05,10.9601,-9.64E-05,10.9601,-6.79E-07,10.9601,5.53E-05,,0
10.96015,7.41E-05,10.96015,1.99E-05,10.96015,-9.71E-05,10.96015,9.43E-07,10.96015,5.53E-05,,0
10.9602,7.53E-05,10.9602,1.75E-05,10.9602,-9.62E-05,10.9602,3.05E-06,10.9602,5.53E-05,,0
10.96025,7.62E-05,10.96025,1.44E-05,10.96025,-9.50E-05,10.96025,3.38E-06,10.96025,5.53E-05,,0
10.9603,7.67E-05,10.9603,1.18E-05,10.9603,-9.32E-05,10.9603,4.68E-06,10.9603,5.53E-05,,0
10.96035,7.67E-05,10.96035,9.06E-06,10.96035,-9.07E-05,10.96035,4.84E-06,10.96035,5.53E-05,,0
10.9604,7.70E-05,10.9604,5.32E-06,10.9604,-8.76E-05,10.9604,5.32E-06,10.9604,5.54E-05,,0
10.96045,7.70E-05,10.96045,2.40E-06,10.96045,-8.41E-05,10.96045,5.00E-06,10.96045,5.54E-05,,0
10.9605,7.67E-05,10.9605,-1.33E-06,10.9605,-8.03E-05,10.9605,5.00E-06,10.9605,5.54E-05,,0
10.96055,7.67E-05,10.96055,-4.25E-06,10.96055,-7.56E-05,10.96055,5.00E-06,10.96055,5.54E-05,,0
10.9606,7.56E-05,10.9606,-7.98E-06,10.9606,-7.03E-05,10.9606,4.19E-06,10.9606,5.54E-05,,0
10.96065,7.54E-05,10.96065,-1.16E-05,10.96065,-6.57E-05,10.96065,3.70E-06,10.96065,5.54E-05,,0
10.9607,7.48E-05,10.9607,-1.58E-05,10.9607,-5.99E-05,10.9607,3.70E-06,10.9607,5.55E-05,,0
10.96075,7.38E-05,10.96075,-1.89E-05,10.96075,-5.47E-05,10.96075,3.21E-06,10.96075,5.55E-05,,0
10.9608,7.25E-05,10.9608,-2.31E-05,10.9608,-4.94E-05,10.9608,2.40E-06,10.9608,5.55E-05,,0
10.96085,7.17E-05,10.96085,-2.66E-05,10.96085,-4.37E-05,10.96085,1.59E-06,10.96085,5.55E-05,,0
10.9609,7.01E-05,10.9609,-3.05E-05,10.9609,-3.86E-05,10.9609,1.75E-06,10.9609,5.55E-05,,0
10.96095,6.91E-05,10.96095,-3.46E-05,10.96095,-3.41E-05,10.96095,2.89E-06,10.96095,5.55E-05,,0
10.961,6.78E-05,10.961,-3.83E-05,10.961,-2.97E-05,10.961,2.73E-06,10.961,5.56E-05,,0
10.96105,6.70E-05,10.96105,-4.27E-05,10.96105,-2.52E-05,10.96105,3.38E-06,10.96105,5.56E-05,,0
10.9611,6.62E-05,10.9611,-4.63E-05,10.9611,-2.16E-05,10.9611,3.86E-06,10.9611,5.56E-05,,0
10.96115,6.47E-05,10.96115,-5.02E-05,10.96115,-1.77E-05,10.96115,4.84E-06,10.96115,5.56E-05,,0
10.9612,6.37E-05,10.9612,-5.41E-05,10.9612,-1.46E-05,10.9612,6.78E-06,10.9612,5.56E-05,,0
10.96125,6.29E-05,10.96125,-5.81E-05,10.96125,-1.24E-05,10.96125,8.41E-06,10.96125,5.56E-05,,0
10.9613,6.23E-05,10.9613,-6.17E-05,10.9613,-9.93E-06,10.9613,1.02E-05,10.9613,5.56E-05,,0
10.96135,6.03E-05,10.96135,-6.54E-05,10.96135,-8.31E-06,10.96135,1.28E-05,10.96135,5.56E-05,,0
10.9614,5.95E-05,10.9614,-6.85E-05,10.9614,-6.85E-06,10.9614,1.52E-05,10.9614,5.56E-05,,0
10.96145,5.85E-05,10.96145,-7.13E-05,10.96145,-5.87E-06,10.96145,1.80E-05,10.96145,5.56E-05,,0
10.9615,5.79E-05,10.9615,-7.42E-05,10.9615,-5.22E-06,10.9615,2.09E-05,10.9615,5.56E-05,,0
10.96155,5.66E-05,10.96155,-7.71E-05,10.96155,-5.38E-06,10.96155,2.40E-05,10.96155,5.56E-05,,0
10.9616,5.53E-05,10.9616,-7.90E-05,10.9616,-5.22E-06,10.9616,2.71E-05,10.9616,5.56E-05,,0
10.96165,5.38E-05,10.96165,-8.10E-05,10.96165,-6.03E-06,10.96165,3.08E-05,10.96165,5.56E-05,,0
10.9617,5.25E-05,10.9617,-8.25E-05,10.9617,-6.52E-06,10.9617,3.36E-05,10.9617,5.56E-05,,0
10.96175,5.17E-05,10.96175,-8.34E-05,10.96175,-7.66E-06,10.96175,3.70E-05,10.96175,5.56E-05,,0
10.9618,4.99E-05,10.9618,-8.47E-05,10.9618,-8.63E-06,10.9618,4.02E-05,10.9618,5.56E-05,,0
10.96185,4.80E-05,10.96185,-8.51E-05,10.96185,-9.77E-06,10.96185,4.41E-05,10.96185,5.56E-05,,0
10.9619,4.59E-05,10.9619,-8.59E-05,10.9619,-1.09E-05,10.9619,4.70E-05,10.9619,5.56E-05,,0
10.96195,4.46E-05,10.96195,-8.60E-05,10.96195,-1.27E-05,10.96195,5.04E-05,10.96195,5.56E-05,,0
10.962,4.22E-05,10.962,-8.55E-05,10.962,-1.43E-05,10.962,5.35E-05,10.962,5.56E-05,,0
10.96205,4.07E-05,10.96205,-8.54E-05,10.96205,-1.59E-05,10.96205,5.63E-05,10.96205,5.56E-05,,0
10.9621,3.89E-05,10.9621,-8.52E-05,10.9621,-1.74E-05,10.9621,5.94E-05,10.9621,5.56E-05,,0
10.96215,3.76E-05,10.96215,-8.49E-05,10.96215,-1.93E-05,10.96215,6.16E-05,10.96215,5.56E-05,,0
10.9622,3.60E-05,10.9622,-8.36E-05,10.9622,-2.06E-05,10.9622,6.47E-05,10.9622,5.56E-05,,0
10.96225,3.47E-05,10.96225,-8.26E-05,10.96225,-2.24E-05,10.96225,6.65E-05,10.96225,5.56E-05,,0
10.9623,3.31E-05,10.9623,-8.21E-05,10.9623,-2.39E-05,10.9623,6.89E-05,10.9623,5.56E-05,,0
10.96235,3.14E-05,10.96235,-8.13E-05,10.96235,-2.52E-05,10.96235,7.10E-05,10.96235,5.56E-05,,0
10.9624,3.03E-05,10.9624,-8.07E-05,10.9624,-2.68E-05,10.9624,7.33E-05,10.9624,5.56E-05,,0
10.96245,2.97E-05,10.96245,-7.94E-05,10.96245,-2.84E-05,10.96245,7.49E-05,10.96245,5.56E-05,,0
10.9625,2.82E-05,10.9625,-7.84E-05,10.9625,-2.97E-05,10.9625,7.69E-05,10.9625,5.56E-05,,0
10.96255,2.76E-05,10.96255,-7.76E-05,10.96255,-3.15E-05,10.96255,7.90E-05,10.96255,5.56E-05,,0
10.9626,2.67E-05,10.9626,-7.66E-05,10.9626,-3.25E-05,10.9626,8.04E-05,10.9626,5.56E-05,,0
10.96265,2.59E-05,10.96265,-7.53E-05,10.96265,-3.43E-05,10.96265,8.14E-05,10.96265,5.56E-05,,0
10.9627,2.54E-05,10.9627,-7.43E-05,10.9627,-3.61E-05,10.9627,8.26E-05,10.9627,5.56E-05,,0
10.96275,2.53E-05,10.96275,-7.32E-05,10.96275,-3.72E-05,10.96275,8.37E-05,10.96275,5.56E-05,,0
10.9628,2.45E-05,10.9628,-7.19E-05,10.9628,-3.88E-05,10.9628,8.43E-05,10.9628,5.56E-05,,0
10.96285,2.40E-05,10.96285,-7.06E-05,10.96285,-4.06E-05,10.96285,8.48E-05,10.96285,5.56E-05,,0
10.9629,2.37E-05,10.9629,-6.87E-05,10.9629,-4.19E-05,10.9629,8.48E-05,10.9629,5.56E-05,,0
10.96295,2.37E-05,10.96295,-6.72E-05,10.96295,-4.35E-05,10.96295,8.53E-05,10.96295,5.56E-05,,0
10.963,2.35E-05,10.963,-6.51E-05,10.963,-4.48E-05,10.963,8.53E-05,10.963,5.56E-05,,0
10.96305,2.30E-05,10.96305,-6.35E-05,10.96305,-4.66E-05,10.96305,8.50E-05,10.96305,5.56E-05,,0
10.9631,2.33E-05,10.9631,-6.10E-05,10.9631,-4.81E-05,10.9631,8.45E-05,10.9631,5.56E-05,,0
10.96315,2.32E-05,10.96315,-5.88E-05,10.96315,-4.97E-05,10.96315,8.39E-05,10.96315,5.56E-05,,0
10.9632,2.25E-05,10.9632,-5.58E-05,10.9632,-5.10E-05,10.9632,8.27E-05,10.9632,5.56E-05,,0
10.96325,2.25E-05,10.96325,-5.42E-05,10.96325,-5.31E-05,10.96325,8.19E-05,10.96325,5.56E-05,,0
10.9633,2.22E-05,10.9633,-5.16E-05,10.9633,-5.44E-05,10.9633,8.13E-05,10.9633,5.56E-05,,0
10.96335,2.20E-05,10.96335,-4.87E-05,10.96335,-5.62E-05,10.96335,8.03E-05,10.96335,5.56E-05,,0
10.9634,2.25E-05,10.9634,-4.63E-05,10.9634,-5.76E-05,10.9634,7.88E-05,10.9634,5.56E-05,,0
10.96345,2.27E-05,10.96345,-4.32E-05,10.96345,-5.94E-05,10.96345,7.77E-05,10.96345,5.56E-05,,0
10.9635,2.25E-05,10.9635,-4.11E-05,10.9635,-6.07E-05,10.9635,7.66E-05,10.9635,5.56E-05,,0
10.96355,2.27E-05,10.96355,-3.85E-05,10.96355,-6.20E-05,10.96355,7.56E-05,10.96355,5.56E-05,,0
10.9636,2.30E-05,10.9636,-3.64E-05,10.9636,-6.31E-05,10.9636,7.36E-05,10.9636,5.56E-05,,0
10.96365,2.25E-05,10.96365,-3.44E-05,10.96365,-6.38E-05,10.96365,7.27E-05,10.96365,5.56E-05,,0
10.9637,2.24E-05,10.9637,-3.22E-05,10.9637,-6.53E-05,10.9637,7.14E-05,10.9637,5.56E-05,,0
10.96375,2.20E-05,10.96375,-3.02E-05,10.96375,-6.56E-05,10.96375,7.04E-05,10.96375,5.56E-05,,0
10.9638,2.25E-05,10.9638,-2.87E-05,10.9638,-6.62E-05,10.9638,6.94E-05,10.9638,5.56E-05,,0
10.96385,2.25E-05,10.96385,-2.73E-05,10.96385,-6.62E-05,10.96385,6.91E-05,10.96385,5.56E-05,,0
10.9639,2.24E-05,10.9639,-2.70E-05,10.9639,-6.62E-05,10.9639,6.78E-05,10.9639,5.56E-05,,0
10.96395,2.22E-05,10.96395,-2.58E-05,10.96395,-6.62E-05,10.96395,6.67E-05,10.96395,5.56E-05,,0
10.964,2.22E-05,10.964,-2.52E-05,10.964,-6.56E-05,10.964,6.62E-05,10.964,5.56E-05,,0
10.96405,2.15E-05,10.96405,-2.55E-05,10.96405,-6.51E-05,10.96405,6.54E-05,10.96405,5.56E-05,,0
10.9641,2.17E-05,10.9641,-2.66E-05,10.9641,-6.38E-05,10.9641,6.49E-05,10.9641,5.56E-05,,0
10.96415,2.15E-05,10.96415,-2.75E-05,10.96415,-6.22E-05,10.96415,6.45E-05,10.96415,5.57E-05,,0
10.9642,2.11E-05,10.9642,-2.92E-05,10.9642,-6.06E-05,10.9642,6.45E-05,10.9642,5.57E-05,,0
10.96425,2.09E-05,10.96425,-3.05E-05,10.96425,-5.84E-05,10.96425,6.39E-05,10.96425,5.57E-05,,0
10.9643,2.07E-05,10.9643,-3.28E-05,10.9643,-5.58E-05,10.9643,6.41E-05,10.9643,5.57E-05,,0
10.96435,2.09E-05,10.96435,-3.49E-05,10.96435,-5.36E-05,10.96435,6.44E-05,10.96435,5.57E-05,,0
10.9644,2.04E-05,10.9644,-3.73E-05,10.9644,-5.02E-05,10.9644,6.41E-05,10.9644,5.57E-05,,0
10.96445,2.09E-05,10.96445,-4.06E-05,10.96445,-4.71E-05,10.96445,6.47E-05,10.96445,5.57E-05,,0
10.9645,2.04E-05,10.9645,-4.32E-05,10.9645,-4.32E-05,10.9645,6.52E-05,10.9645,5.57E-05,,0
10.96455,1.98E-05,10.96455,-4.66E-05,10.96455,-4.03E-05,10.96455,6.58E-05,10.96455,5.58E-05,,0
10.9646,1.94E-05,10.9646,-5.08E-05,10.9646,-3.64E-05,10.9646,6.67E-05,10.9646,5.58E-05,,0
10.96465,1.90E-05,10.96465,-5.50E-05,10.96465,-3.28E-05,10.96465,6.76E-05,10.96465,5.58E-05,,0
10.9647,1.78E-05,10.9647,-5.94E-05,10.9647,-2.89E-05,10.9647,6.84E-05,10.9647,5.58E-05,,0
10.96475,1.72E-05,10.96475,-6.30E-05,10.96475,-2.47E-05,10.96475,7.01E-05,10.96475,5.58E-05,,0
10.9648,1.62E-05,10.9648,-6.70E-05,10.9648,-2.03E-05,10.9648,7.17E-05,10.9648,5.58E-05,,0
10.96485,1.51E-05,10.96485,-7.14E-05,10.96485,-1.69E-05,10.96485,7.33E-05,10.96485,5.58E-05,,0
10.9649,1.38E-05,10.9649,-7.61E-05,10.9649,-1.32E-05,10.9649,7.51E-05,10.9649,5.59E-05,,0
10.96495,1.30E-05,10.96495,-8.02E-05,10.96495,-9.93E-06,10.96495,7.70E-05,10.96495,5.59E-05,,0
10.965,1.18E-05,10.965,-8.47E-05,10.965,-6.68E-06,10.965,7.90E-05,10.965,5.59E-05,,0
10.96505,1.05E-05,10.96505,-8.89E-05,10.96505,-3.76E-06,10.96505,8.11E-05,10.96505,5.59E-05,,0
10.9651,9.38E-06,10.9651,-9.30E-05,10.9651,-1.33E-06,10.9651,8.40E-05,10.9651,5.59E-05,,0
10.96515,7.76E-06,10.96515,-9.71E-05,10.96515,9.43E-07,10.96515,8.78E-05,10.96515,5.59E-05,,0
10.9652,6.62E-06,10.9652,-0.000100954,10.9652,2.08E-06,10.9652,9.02E-05,10.9652,5.59E-05,,0
10.96525,5.81E-06,10.96525,-0.000104686,10.96525,3.54E-06,10.96525,9.36E-05,10.96525,5.59E-05,,0
10.9653,5.32E-06,10.9653,-0.000108255,10.9653,4.84E-06,10.9653,9.63E-05,10.9653,5.59E-05,,0
10.96535,4.35E-06,10.96535,-0.000111338,10.96535,5.16E-06,10.96535,9.98E-05,10.96535,5.59E-05,,0
10.9654,3.86E-06,10.9654,-0.000114421,10.9654,5.49E-06,10.9654,0.000103003,10.9654,5.60E-05,,0
10.96545,3.54E-06,10.96545,-0.000117666,10.96545,5.97E-06,10.96545,0.00010641,10.96545,5.60E-05,,0
10.9655,3.05E-06,10.9655,-0.000120424,10.9655,4.68E-06,10.9655,0.000110304,10.9655,5.60E-05,,0
10.96555,3.70E-06,10.96555,-0.000122858,10.96555,4.03E-06,10.96555,0.0001129,10.96555,5.60E-05,,0
10.9656,4.35E-06,10.9656,-0.000125454,10.9656,2.89E-06,10.9656,0.000116308,10.9656,5.60E-05,,0
10.96565,4.19E-06,10.96565,-0.000127077,10.96565,9.43E-07,10.96565,0.000120039,10.96565,5.60E-05,,0
10.9657,5.16E-06,10.9657,-0.000128862,10.9657,-1.00E-06,10.9657,0.00012296,10.9657,5.60E-05,,0
10.96575,5.49E-06,10.96575,-0.000130484,10.96575,-2.95E-06,10.96575,0.000125394,10.96575,5.60E-05,,0
10.9658,6.46E-06,10.9658,-0.00013162,10.9658,-5.22E-06,10.9658,0.000128477,10.9658,5.60E-05,,0
10.96585,7.43E-06,10.96585,-0.00013308,10.96585,-7.49E-06,10.96585,0.000130586,10.96585,5.60E-05,,0
10.9659,8.89E-06,10.9659,-0.000133567,10.9659,-9.93E-06,10.9659,0.000132533,10.9659,5.60E-05,,0
10.96595,1.00E-05,10.96595,-0.000134541,10.96595,-1.22E-05,10.96595,0.000133669,10.96595,5.60E-05,,0
10.966,1.15E-05,10.966,-0.000134541,10.966,-1.51E-05,10.966,0.000135778,10.966,5.60E-05,,0
10.96605,1.28E-05,10.96605,-0.000134703,10.96605,-1.84E-05,10.96605,0.000136427,10.96605,5.60E-05,,0
10.9661,1.42E-05,10.9661,-0.000134054,10.9661,-2.08E-05,10.9661,0.000137725,10.9661,5.60E-05,,0
10.96615,1.64E-05,10.96615,-0.000133405,10.96615,-2.31E-05,10.96615,0.000137725,10.96615,5.60E-05,,0
10.9662,1.78E-05,10.9662,-0.000131945,10.9662,-2.58E-05,10.9662,0.000137076,10.9662,5.60E-05,,0
10.96625,1.99E-05,10.96625,-0.000130809,10.96625,-2.84E-05,10.96625,0.000136265,10.96625,5.60E-05,,0
10.9663,2.06E-05,10.9663,-0.000129673,10.9663,-3.10E-05,10.9663,0.000135454,10.9663,5.60E-05,,0
10.96635,2.22E-05,10.96635,-0.000127564,10.96635,-3.28E-05,10.96635,0.000133993,10.96635,5.60E-05,,0
10.9664,2.37E-05,10.9664,-0.000125292,10.9664,-3.48E-05,10.9664,0.000132209,10.9664,5.60E-05,,0
10.96645,2.51E-05,10.96645,-0.000123183,10.96645,-3.62E-05,10.96645,0.000131073,10.96645,5.60E-05,,0
10.9665,2.64E-05,10.9665,-0.000120587,10.9665,-3.77E-05,10.9665,0.000128315,10.9665,5.60E-05,,0
10.96655,2.76E-05,10.96655,-0.000117666,10.96655,-3.93E-05,10.96655,0.000125718,10.96655,5.60E-05,,0
10.9666,2.90E-05,10.9666,-0.00011507,10.9666,-4.09E-05,10.9666,0.000123447,10.9666,5.60E-05,,0
10.96665,3.01E-05,10.96665,-0.000111663,10.96665,-4.14E-05,10.96665,0.000119715,10.96665,5.60E-05,,0
10.9667,3.11E-05,10.9667,-0.00010858,10.9667,-4.29E-05,10.9667,0.00011647,10.9667,5.60E-05,,0
10.96675,3.16E-05,10.96675,-0.00010501,10.96675,-4.30E-05,10.96675,0.000113062,10.96675,5.60E-05,,0
10.9668,3.24E-05,10.9668,-0.000101278,10.9668,-4.32E-05,10.9668,0.000109168,10.9668,5.60E-05,,0
10.96685,3.34E-05,10.96685,-9.84E-05,10.96685,-4.40E-05,10.96685,0.000105274,10.96685,5.60E-05,,0
10.9669,3.37E-05,10.9669,-9.46E-05,10.9669,-4.45E-05,10.9669,0.000101218,10.9669,5.60E-05,,0
10.96695,3.45E-05,10.96695,-9.09E-05,10.96695,-4.45E-05,10.96695,9.73E-05,10.96695,5.60E-05,,0
10.967,3.47E-05,10.967,-8.75E-05,10.967,-4.43E-05,10.967,9.38E-05,10.967,5.60E-05,,0
10.96705,3.53E-05,10.96705,-8.41E-05,10.96705,-4.45E-05,10.96705,8.97E-05,10.96705,5.60E-05,,0
10.9671,3.55E-05,10.9671,-8.07E-05,10.9671,-4.45E-05,10.9671,8.58E-05,10.9671,5.60E-05,,0
10.96715,3.57E-05,10.96715,-7.71E-05,10.96715,-4.47E-05,10.96715,8.17E-05,10.96715,5.60E-05,,0
10.9672,3.63E-05,10.9672,-7.35E-05,10.9672,-4.40E-05,10.9672,7.87E-05,10.9672,5.60E-05,,0
10.96725,3.65E-05,10.96725,-7.03E-05,10.96725,-4.45E-05,10.96725,7.43E-05,10.96725,5.60E-05,,0
10.9673,3.62E-05,10.9673,-6.72E-05,10.9673,-4.40E-05,10.9673,7.06E-05,10.9673,5.60E-05,,0
10.96735,3.65E-05,10.96735,-6.38E-05,10.96735,-4.29E-05,10.96735,6.70E-05,10.96735,5.60E-05,,0
10.9674,3.63E-05,10.9674,-6.12E-05,10.9674,-4.27E-05,10.9674,6.37E-05,10.9674,5.60E-05,,0
10.96745,3.57E-05,10.96745,-5.78E-05,10.96745,-4.22E-05,10.96745,6.08E-05,10.96745,5.60E-05,,0
10.9675,3.60E-05,10.9675,-5.50E-05,10.9675,-4.12E-05,10.9675,5.76E-05,10.9675,5.60E-05,,0
10.96755,3.57E-05,10.96755,-5.21E-05,10.96755,-4.08E-05,10.96755,5.38E-05,10.96755,5.61E-05,,0
10.9676,3.55E-05,10.9676,-4.90E-05,10.9676,-4.04E-05,10.9676,5.11E-05,10.9676,5.61E-05,,0
10.96765,3.50E-05,10.96765,-4.66E-05,10.96765,-3.93E-05,10.96765,4.85E-05,10.96765,5.61E-05,,0
10.9677,3.40E-05,10.9677,-4.37E-05,10.9677,-3.95E-05,10.9677,4.52E-05,10.9677,5.61E-05,,0
10.96775,3.37E-05,10.96775,-4.12E-05,10.96775,-3.86E-05,10.96775,4.36E-05,10.96775,5.61E-05,,0
10.9678,3.31E-05,10.9678,-3.86E-05,10.9678,-3.72E-05,10.9678,4.05E-05,10.9678,5.61E-05,,0
10.96785,3.23E-05,10.96785,-3.59E-05,10.96785,-3.64E-05,10.96785,3.81E-05,10.96785,5.61E-05,,0
10.9679,3.06E-05,10.9679,-3.31E-05,10.9679,-3.59E-05,10.9679,3.55E-05,10.9679,5.61E-05,,0
10.96795,2.95E-05,10.96795,-3.07E-05,10.96795,-3.51E-05,10.96795,3.34E-05,10.96795,5.61E-05,,0
10.968,2.82E-05,10.968,-2.84E-05,10.968,-3.39E-05,10.968,3.01E-05,10.968,5.61E-05,,0
10.96805,2.77E-05,10.96805,-2.58E-05,10.96805,-3.30E-05,10.96805,2.80E-05,10.96805,5.61E-05,,0
10.9681,2.59E-05,10.9681,-2.34E-05,10.9681,-3.17E-05,10.9681,2.64E-05,10.9681,5.61E-05,,0
10.96815,2.40E-05,10.96815,-2.11E-05,10.96815,-3.04E-05,10.96815,2.38E-05,10.96815,5.61E-05,,0
10.9682,2.28E-05,10.9682,-1.90E-05,10.9682,-2.94E-05,10.9682,2.17E-05,10.9682,5.61E-05,,0
10.96825,2.12E-05,10.96825,-1.58E-05,10.96825,-2.75E-05,10.96825,1.98E-05,10.96825,5.61E-05,,0
10.9683,1.91E-05,10.9683,-1.30E-05,10.9683,-2.62E-05,10.9683,1.78E-05,10.9683,5.61E-05,,0
10.96835,1.72E-05,10.96835,-1.06E-05,10.96835,-2.49E-05,10.96835,1.55E-05,10.96835,5.61E-05,,0
10.9684,1.46E-05,10.9684,-8.79E-06,10.9684,-2.36E-05,10.9684,1.39E-05,10.9684,5.61E-05,,0
10.96845,1.30E-05,10.96845,-6.36E-06,10.96845,-2.19E-05,10.96845,1.13E-05,10.96845,5.61E-05,,0
10.9685,1.05E-05,10.9685,-3.76E-06,10.9685,-2.03E-05,10.9685,9.22E-06,10.9685,5.61E-05,,0
10.96855,9.06E-06,10.96855,-1.82E-06,10.96855,-1.82E-05,10.96855,7.27E-06,10.96855,5.61E-05,,0
10.9686,6.95E-06,10.9686,6.19E-07,10.9686,-1.59E-05,10.9686,5.81E-06,10.9686,5.61E-05,,0
10.96865,4.51E-06,10.96865,2.57E-06,10.96865,-1.43E-05,10.96865,3.70E-06,10.96865,5.62E-05,,0
10.9687,2.40E-06,10.9687,4.51E-06,10.9687,-1.24E-05,10.9687,1.43E-06,10.9687,5.62E-05,,0
10.96875,7.81E-07,10.96875,6.30E-06,10.96875,-1.04E-05,10.96875,2.94E-07,10.96875,5.62E-05,,0
10.9688,-2.30E-06,10.9688,8.41E-06,10.9688,-8.31E-06,10.9688,-2.46E-06,10.9688,5.62E-05,,0
10.96885,-4.41E-06,10.96885,9.71E-06,10.96885,-5.87E-06,10.96885,-4.09E-06,10.96885,5.62E-05,,0
10.9689,-6.68E-06,10.9689,1.18E-05,10.9689,-2.95E-06,10.9689,-5.38E-06,10.9689,5.62E-05,,0
10.96895,-8.14E-06,10.96895,1.30E-05,10.96895,-1.17E-06,10.96895,-7.33E-06,10.96895,5.62E-05,,0
10.969,-1.04E-05,10.969,1.44E-05,10.969,1.43E-06,10.969,-9.12E-06,10.969,5.62E-05,,0
10.96905,-1.25E-05,10.96905,1.54E-05,10.96905,3.54E-06,10.96905,-1.06E-05,10.96905,5.62E-05,,0
10.9691,-1.45E-05,10.9691,1.75E-05,10.9691,6.62E-06,10.9691,-1.32E-05,10.9691,5.62E-05,,0
10.96915,-1.59E-05,10.96915,1.83E-05,10.96915,8.24E-06,10.96915,-1.50E-05,10.96915,5.62E-05,,0
10.9692,-1.84E-05,10.9692,1.99E-05,10.9692,1.05E-05,10.9692,-1.67E-05,10.9692,5.62E-05,,0
10.96925,-1.98E-05,10.96925,2.12E-05,10.96925,1.30E-05,10.96925,-1.85E-05,10.96925,5.62E-05,,0
10.9693,-2.14E-05,10.9693,2.25E-05,10.9693,1.52E-05,10.9693,-2.00E-05,10.9693,5.62E-05,,0
10.96935,-2.36E-05,10.96935,2.38E-05,10.96935,1.72E-05,10.96935,-2.14E-05,10.96935,5.62E-05,,0
10.9694,-2.50E-05,10.9694,2.56E-05,10.9694,1.91E-05,10.9694,-2.36E-05,10.9694,5.62E-05,,0
10.96945,-2.68E-05,10.96945,2.71E-05,10.96945,2.09E-05,10.96945,-2.47E-05,10.96945,5.62E-05,,0
10.9695,-2.86E-05,10.9695,2.85E-05,10.9695,2.27E-05,10.9695,-2.71E-05,10.9695,5.62E-05,,0
10.96955,-3.00E-05,10.96955,3.01E-05,10.96955,2.43E-05,10.96955,-2.86E-05,10.96955,5.62E-05,,0
10.9696,-3.18E-05,10.9696,3.11E-05,10.9696,2.63E-05,10.9696,-3.07E-05,10.9696,5.62E-05,,0
10.96965,-3.33E-05,10.96965,3.26E-05,10.96965,2.69E-05,10.96965,-3.26E-05,10.96965,5.62E-05,,0
10.9697,-3.44E-05,10.9697,3.37E-05,10.9697,2.90E-05,10.9697,-3.41E-05,10.9697,5.62E-05,,0
10.96975,-3.51E-05,10.96975,3.52E-05,10.96975,3.01E-05,10.96975,-3.64E-05,10.96975,5.62E-05,,0
10.9698,-3.69E-05,10.9698,3.66E-05,10.9698,3.18E-05,10.9698,-3.78E-05,10.9698,5.62E-05,,0
10.96985,-3.72E-05,10.96985,3.76E-05,10.96985,3.29E-05,10.96985,-3.93E-05,10.96985,5.62E-05,,0
10.9699,-3.82E-05,10.9699,3.83E-05,10.9699,3.34E-05,10.9699,-4.09E-05,10.9699,5.62E-05,,0
10.96995,-3.83E-05,10.96995,3.94E-05,10.96995,3.44E-05,10.96995,-4.27E-05,10.96995,5.62E-05,,0
10.97,-3.86E-05,10.97,4.09E-05,10.97,3.60E-05,10.97,-4.48E-05,10.97,5.62E-05,,0
10.97005,-3.93E-05,10.97005,4.13E-05,10.97005,3.71E-05,10.97005,-4.63E-05,10.97005,5.62E-05,,0
10.9701,-3.93E-05,10.9701,4.25E-05,10.9701,3.78E-05,10.9701,-4.79E-05,10.9701,5.62E-05,,0
10.97015,-3.90E-05,10.97015,4.36E-05,10.97015,3.84E-05,10.97015,-4.97E-05,10.97015,5.62E-05,,0
10.9702,-3.88E-05,10.9702,4.41E-05,10.9702,3.92E-05,10.9702,-5.13E-05,10.9702,5.62E-05,,0
10.97025,-3.90E-05,10.97025,4.59E-05,10.97025,3.97E-05,10.97025,-5.33E-05,10.97025,5.62E-05,,0
10.9703,-3.88E-05,10.9703,4.67E-05,10.9703,3.99E-05,10.9703,-5.52E-05,10.9703,5.62E-05,,0
10.97035,-3.80E-05,10.97035,4.72E-05,10.97035,4.07E-05,10.97035,-5.55E-05,10.97035,5.62E-05,,0
10.9704,-3.78E-05,10.9704,4.80E-05,10.9704,4.07E-05,10.9704,-5.75E-05,10.9704,5.62E-05,,0
10.97045,-3.80E-05,10.97045,4.85E-05,10.97045,4.09E-05,10.97045,-5.83E-05,10.97045,5.61E-05,,0
10.9705,-3.75E-05,10.9705,4.99E-05,10.9705,4.18E-05,10.9705,-5.91E-05,10.9705,5.61E-05,,0
10.97055,-3.72E-05,10.97055,5.04E-05,10.97055,4.13E-05,10.97055,-6.06E-05,10.97055,5.61E-05,,0
10.9706,-3.75E-05,10.9706,5.11E-05,10.9706,4.13E-05,10.9706,-6.17E-05,10.9706,5.61E-05,,0
10.97065,-3.70E-05,10.97065,5.16E-05,10.97065,4.10E-05,10.97065,-6.25E-05,10.97065,5.61E-05,,0
10.9707,-3.72E-05,10.9707,5.24E-05,10.9707,4.05E-05,10.9707,-6.31E-05,10.9707,5.61E-05,,0
10.97075,-3.75E-05,10.97075,5.27E-05,10.97075,4.04E-05,10.97075,-6.38E-05,10.97075,5.61E-05,,0
10.9708,-3.75E-05,10.9708,5.42E-05,10.9708,3.97E-05,10.9708,-6.44E-05,10.9708,5.61E-05,,0
10.97085,-3.78E-05,10.97085,5.45E-05,10.97085,3.97E-05,10.97085,-6.48E-05,10.97085,5.61E-05,,0
10.9709,-3.78E-05,10.9709,5.50E-05,10.9709,3.91E-05,10.9709,-6.48E-05,10.9709,5.61E-05,,0
10.97095,-3.78E-05,10.97095,5.55E-05,10.97095,3.87E-05,10.97095,-6.46E-05,10.97095,5.60E-05,,0
10.971,-3.80E-05,10.971,5.63E-05,10.971,3.84E-05,10.971,-6.44E-05,10.971,5.60E-05,,0
10.97105,-3.78E-05,10.97105,5.72E-05,10.97105,3.79E-05,10.97105,-6.40E-05,10.97105,5.60E-05,,0
10.9711,-3.85E-05,10.9711,5.72E-05,10.9711,3.75E-05,10.9711,-6.36E-05,10.9711,5.60E-05,,0
10.97115,-3.83E-05,10.97115,5.74E-05,10.97115,3.71E-05,10.97115,-6.40E-05,10.97115,5.60E-05,,0
10.9712,-3.86E-05,10.9712,5.84E-05,10.9712,3.66E-05,10.9712,-6.35E-05,10.9712,5.60E-05,,0
10.97125,-3.86E-05,10.97125,5.79E-05,10.97125,3.58E-05,10.97125,-6.33E-05,10.97125,5.60E-05,,0
10.9713,-3.90E-05,10.9713,5.84E-05,10.9713,3.62E-05,10.9713,-6.35E-05,10.9713,5.60E-05,,0
10.97135,-3.90E-05,10.97135,5.82E-05,10.97135,3.55E-05,10.97135,-6.30E-05,10.97135,5.60E-05,,0
10.9714,-3.86E-05,10.9714,5.81E-05,10.9714,3.53E-05,10.9714,-6.30E-05,10.9714,5.60E-05,,0
10.97145,-3.90E-05,10.97145,5.82E-05,10.97145,3.52E-05,10.97145,-6.27E-05,10.97145,5.60E-05,,0
10.9715,-3.88E-05,10.9715,5.82E-05,10.9715,3.58E-05,10.9715,-6.35E-05,10.9715,5.60E-05,,0
10.97155,-3.85E-05,10.97155,5.77E-05,10.97155,3.68E-05,10.97155,-6.36E-05,10.97155,5.60E-05,,0
10.9716,-3.86E-05,10.9716,5.76E-05,10.9716,3.66E-05,10.9716,-6.36E-05,10.9716,5.60E-05,,0
10.97165,-3.83E-05,10.97165,5.71E-05,10.97165,3.71E-05,10.97165,-6.48E-05,10.97165,5.60E-05,,0
10.9717,-3.82E-05,10.9717,5.72E-05,10.9717,3.87E-05,10.9717,-6.54E-05,10.9717,5.60E-05,,0
10.97175,-3.80E-05,10.97175,5.74E-05,10.97175,3.97E-05,10.97175,-6.66E-05,10.97175,5.60E-05,,0
10.9718,-3.82E-05,10.9718,5.66E-05,10.9718,4.12E-05,10.9718,-6.79E-05,10.9718,5.60E-05,,0
10.97185,-3.83E-05,10.97185,5.71E-05,10.97185,4.26E-05,10.97185,-6.95E-05,10.97185,5.60E-05,,0
10.9719,-3.83E-05,10.9719,5.68E-05,10.9719,4.43E-05,10.9719,-7.11E-05,10.9719,5.60E-05,,0
10.97195,-3.85E-05,10.97195,5.63E-05,10.97195,4.65E-05,10.97195,-7.27E-05,10.97195,5.60E-05,,0
10.972,-3.90E-05,10.972,5.64E-05,10.972,4.86E-05,10.972,-7.34E-05,10.972,5.60E-05,,0
10.97205,-3.90E-05,10.97205,5.61E-05,10.97205,5.04E-05,10.97205,-7.50E-05,10.97205,5.60E-05,,0
10.9721,-3.91E-05,10.9721,5.59E-05,10.9721,5.22E-05,10.9721,-7.68E-05,10.9721,5.60E-05,,0
10.97215,-3.96E-05,10.97215,5.59E-05,10.97215,5.40E-05,10.97215,-7.87E-05,10.97215,5.60E-05,,0
10.9722,-3.99E-05,10.9722,5.59E-05,10.9722,5.58E-05,10.9722,-8.00E-05,10.9722,5.60E-05,,0
10.97225,-4.06E-05,10.97225,5.63E-05,10.97225,5.77E-05,10.97225,-8.21E-05,10.97225,5.60E-05,,0
10.9723,-4.06E-05,10.9723,5.69E-05,10.9723,5.98E-05,10.9723,-8.28E-05,10.9723,5.60E-05,,0
10.97235,-4.12E-05,10.97235,5.72E-05,10.97235,6.11E-05,10.97235,-8.41E-05,10.97235,5.60E-05,,0
10.9724,-4.22E-05,10.9724,5.77E-05,10.9724,6.28E-05,10.9724,-8.55E-05,10.9724,5.60E-05,,0
10.97245,-4.29E-05,10.97245,5.81E-05,10.97245,6.41E-05,10.97245,-8.64E-05,10.97245,5.60E-05,,0
10.9725,-4.34E-05,10.9725,5.94E-05,10.9725,6.55E-05,10.9725,-8.72E-05,10.9725,5.60E-05,,0
10.97255,-4.42E-05,10.97255,5.92E-05,10.97255,6.58E-05,10.97255,-8.83E-05,10.97255,5.60E-05,,0
10.9726,-4.47E-05,10.9726,6.02E-05,10.9726,6.63E-05,10.9726,-8.93E-05,10.9726,5.59E-05,,0
10.97265,-4.56E-05,10.97265,6.10E-05,10.97265,6.65E-05,10.97265,-8.99E-05,10.97265,5.59E-05,,0
10.9727,-4.59E-05,10.9727,6.20E-05,10.9727,6.70E-05,10.9727,-9.02E-05,10.9727,5.59E-05,,0
10.97275,-4.63E-05,10.97275,6.24E-05,10.97275,6.65E-05,10.97275,-9.06E-05,10.97275,5.59E-05,,0
10.9728,-4.61E-05,10.9728,6.37E-05,10.9728,6.58E-05,10.9728,-9.12E-05,10.9728,5.59E-05,,0
10.97285,-4.69E-05,10.97285,6.44E-05,10.97285,6.45E-05,10.97285,-9.07E-05,10.97285,5.59E-05,,0
10.9729,-4.64E-05,10.9729,6.58E-05,10.9729,6.36E-05,10.9729,-9.06E-05,10.9729,5.59E-05,,0
10.97295,-4.64E-05,10.97295,6.68E-05,10.97295,6.20E-05,10.97295,-9.04E-05,10.97295,5.59E-05,,0
10.973,-4.68E-05,10.973,6.73E-05,10.973,6.05E-05,10.973,-9.02E-05,10.973,5.59E-05,,0
10.97305,-4.59E-05,10.97305,6.83E-05,10.97305,5.92E-05,10.97305,-8.94E-05,10.97305,5.59E-05,,0
10.9731,-4.50E-05,10.9731,6.94E-05,10.9731,5.71E-05,10.9731,-8.94E-05,10.9731,5.59E-05,,0
10.97315,-4.45E-05,10.97315,7.02E-05,10.97315,5.50E-05,10.97315,-8.91E-05,10.97315,5.59E-05,,0
